#Step_num time omega delta |10><10| |r0><r0| |d0><d0|
0 0.000000 1.000000 0.000000 0.000000 0.000000 0.000000 0.000000 0.000000
1 0.002642 0.999999 0.000000 0.000000 0.000000 0.000000 0.000000 0.000000
2 0.005673 0.999984 0.000004 0.000004 0.000000 0.000000 0.000000 0.000000
3 0.008690 0.999897 0.000026 0.000026 0.000000 0.000000 0.000000 0.000000
4 0.011720 0.999610 0.000097 0.000097 0.000000 0.000000 0.000000 0.000000
5 0.012888 0.999403 0.000149 0.000149 0.000000 0.000000 -0.000000 0.000000
6 0.013948 0.999149 0.000213 0.000213 0.000000 0.000000 0.000000 0.000000
7 0.014691 0.998924 0.000269 0.000269 0.000000 0.000000 -0.000000 0.000000
8 0.015371 0.998681 0.000330 0.000330 0.000000 0.000000 -0.000000 0.000000
9 0.016003 0.998418 0.000396 0.000396 0.000000 0.000000 0.000000 0.000000
10 0.016659 0.998103 0.000474 0.000474 0.000000 0.000000 0.000000 0.000000
11 0.017266 0.997770 0.000557 0.000557 0.000000 0.000000 -0.000000 0.000000
12 0.017829 0.997423 0.000644 0.000644 0.000000 0.000000 -0.000000 0.000000
13 0.018378 0.997046 0.000738 0.000738 0.000000 0.000001 0.000000 0.000000
14 0.018924 0.996630 0.000842 0.000842 0.000000 0.000001 0.000000 0.000000
15 0.019468 0.996172 0.000957 0.000956 0.000000 0.000001 -0.000000 0.000000
16 0.020010 0.995670 0.001082 0.001082 0.000000 0.000001 -0.000000 0.000000
17 0.020552 0.995120 0.001220 0.001219 0.000000 0.000001 -0.000000 0.000000
18 0.021092 0.994519 0.001370 0.001369 0.000000 0.000002 0.000000 0.000000
19 0.021632 0.993865 0.001533 0.001532 0.000000 0.000002 0.000000 0.000000
20 0.022172 0.993154 0.001710 0.001710 0.000000 0.000003 -0.000000 0.000000
21 0.022711 0.992384 0.001903 0.001902 0.000000 0.000004 -0.000000 0.000000
22 0.023250 0.991551 0.002110 0.002109 0.000000 0.000004 -0.000000 0.000000
23 0.023788 0.990653 0.002334 0.002333 0.000000 0.000005 0.000000 0.000000
24 0.024327 0.989688 0.002575 0.002573 0.000001 0.000007 0.000000 0.000000
25 0.024864 0.988651 0.002833 0.002832 0.000001 0.000008 -0.000000 0.000000
26 0.025402 0.987541 0.003110 0.003108 0.000001 0.000010 -0.000000 0.000000
27 0.025939 0.986355 0.003405 0.003403 0.000001 0.000012 -0.000000 0.000000
28 0.026476 0.985089 0.003720 0.003718 0.000001 0.000014 0.000000 0.000000
29 0.027013 0.983743 0.004055 0.004052 0.000001 0.000017 0.000000 0.000000
30 0.027550 0.982312 0.004410 0.004407 0.000002 0.000020 -0.000000 0.000000
31 0.028086 0.980795 0.004787 0.004784 0.000002 0.000023 0.000000 0.000000
32 0.028622 0.979190 0.005185 0.005182 0.000002 0.000027 0.000000 0.000000
33 0.029158 0.977495 0.005605 0.005602 0.000002 0.000032 0.000000 0.000000
34 0.029693 0.975707 0.006047 0.006044 0.000003 0.000037 0.000000 0.000000
35 0.030229 0.973825 0.006512 0.006510 0.000003 0.000044 0.000000 0.000000
36 0.030764 0.971847 0.007000 0.006998 0.000004 0.000050 0.000000 0.000000
37 0.031299 0.969772 0.007512 0.007510 0.000004 0.000058 0.000000 0.000000
38 0.031834 0.967599 0.008046 0.008046 0.000005 0.000067 0.000000 0.000001
39 0.032368 0.965327 0.008604 0.008605 0.000005 0.000077 0.000000 0.000001
40 0.032902 0.962954 0.009184 0.009188 0.000006 0.000088 0.000000 0.000001
41 0.033436 0.960481 0.009788 0.009794 0.000007 0.000101 0.000000 0.000001
42 0.033969 0.957908 0.010416 0.010425 0.000008 0.000114 0.000000 0.000001
43 0.034502 0.955233 0.011065 0.011078 0.000009 0.000130 0.000000 0.000002
44 0.035035 0.952458 0.011737 0.011755 0.000010 0.000147 0.000000 0.000002
45 0.035567 0.949584 0.012431 0.012455 0.000011 0.000165 0.000000 0.000002
46 0.036098 0.946610 0.013146 0.013178 0.000013 0.000186 0.000000 0.000003
47 0.036630 0.943539 0.013882 0.013922 0.000014 0.000209 0.000000 0.000003
48 0.037160 0.940371 0.014637 0.014687 0.000016 0.000234 0.000000 0.000004
49 0.037690 0.937109 0.015411 0.015474 0.000017 0.000261 0.000000 0.000004
50 0.038220 0.933754 0.016203 0.016280 0.000019 0.000290 0.000000 0.000005
51 0.038748 0.930310 0.017012 0.017105 0.000021 0.000323 0.000000 0.000006
52 0.039276 0.926778 0.017836 0.017948 0.000023 0.000358 0.000000 0.000007
53 0.039803 0.923162 0.018675 0.018808 0.000026 0.000396 0.000000 0.000008
54 0.040329 0.919464 0.019526 0.019684 0.000028 0.000437 0.000000 0.000010
55 0.040854 0.915690 0.020389 0.020575 0.000031 0.000481 0.000000 0.000011
56 0.041378 0.911842 0.021261 0.021478 0.000034 0.000528 0.000000 0.000013
57 0.041902 0.907924 0.022142 0.022394 0.000037 0.000579 0.000000 0.000015
58 0.042424 0.903941 0.023028 0.023320 0.000040 0.000634 0.000000 0.000017
59 0.042944 0.899898 0.023919 0.024256 0.000043 0.000692 0.000000 0.000019
60 0.043464 0.895799 0.024813 0.025199 0.000047 0.000754 0.000000 0.000022
61 0.043982 0.891649 0.025707 0.026147 0.000051 0.000820 0.000000 0.000025
62 0.044499 0.887453 0.026600 0.027100 0.000055 0.000890 0.000000 0.000029
63 0.045015 0.883217 0.027489 0.028056 0.000059 0.000965 0.000000 0.000033
64 0.045529 0.878945 0.028373 0.029012 0.000063 0.001043 0.000000 0.000037
65 0.046041 0.874643 0.029250 0.029968 0.000068 0.001126 0.000000 0.000041
66 0.046552 0.870316 0.030117 0.030921 0.000072 0.001213 0.000000 0.000047
67 0.047062 0.865969 0.030972 0.031870 0.000078 0.001305 0.000000 0.000052
68 0.047569 0.861608 0.031814 0.032813 0.000083 0.001401 0.000000 0.000058
69 0.048076 0.857238 0.032641 0.033749 0.000088 0.001502 0.000000 0.000065
70 0.048580 0.852863 0.033451 0.034676 0.000094 0.001607 0.000000 0.000071
71 0.049083 0.848489 0.034241 0.035592 0.000099 0.001717 0.000000 0.000080
72 0.049585 0.844119 0.035011 0.036497 0.000105 0.001832 0.000000 0.000088
73 0.050084 0.839759 0.035758 0.037388 0.000111 0.001951 0.000000 0.000097
74 0.050583 0.835413 0.036482 0.038264 0.000118 0.002075 0.000000 0.000108
75 0.051079 0.831084 0.037180 0.039125 0.000124 0.002203 0.000000 0.000118
76 0.051575 0.826775 0.037851 0.039969 0.000131 0.002336 0.000000 0.000129
77 0.052069 0.822491 0.038495 0.040794 0.000137 0.002473 0.000000 0.000143
78 0.052561 0.818235 0.039109 0.041601 0.000144 0.002615 0.000000 0.000154
79 0.053052 0.814010 0.039693 0.042387 0.000151 0.002761 0.000000 0.000168
80 0.053542 0.809817 0.040245 0.043153 0.000158 0.002912 0.000000 0.000185
81 0.054031 0.805660 0.040766 0.043896 0.000165 0.003067 0.000000 0.000198
82 0.054518 0.801540 0.041255 0.044618 0.000173 0.003226 0.000000 0.000216
83 0.055005 0.797459 0.041710 0.045317 0.000180 0.003389 0.000000 0.000235
84 0.055490 0.793420 0.042132 0.045993 0.000188 0.003556 0.000000 0.000251
85 0.055975 0.789422 0.042521 0.046646 0.000195 0.003727 0.000000 0.000272
86 0.056458 0.785467 0.042875 0.047275 0.000203 0.003902 0.000000 0.000294
87 0.056941 0.781556 0.043197 0.047880 0.000210 0.004081 0.000000 0.000313
88 0.057422 0.777688 0.043484 0.048461 0.000218 0.004264 0.000000 0.000338
89 0.057903 0.773864 0.043739 0.049019 0.000226 0.004450 0.000000 0.000363
90 0.058383 0.770084 0.043961 0.049553 0.000234 0.004640 0.000000 0.000385
91 0.058863 0.766347 0.044151 0.050065 0.000241 0.004832 0.000000 0.000413
92 0.059341 0.762652 0.044309 0.050553 0.000249 0.005029 0.000000 0.000441
93 0.059819 0.758998 0.044438 0.051020 0.000257 0.005228 0.000000 0.000467
94 0.060296 0.755384 0.044538 0.051466 0.000265 0.005431 0.000001 0.000498
95 0.060773 0.751807 0.044610 0.051891 0.000273 0.005637 0.000001 0.000529
96 0.061249 0.748266 0.044656 0.052297 0.000281 0.005846 0.000001 0.000558
97 0.061724 0.744758 0.044678 0.052684 0.000289 0.006057 0.000001 0.000593
98 0.062199 0.741281 0.044676 0.053054 0.000296 0.006272 0.000001 0.000627
99 0.062673 0.737833 0.044653 0.053407 0.000304 0.006490 0.000001 0.000660
100 0.063147 0.734410 0.044611 0.053746 0.000312 0.006711 0.000001 0.000699
101 0.063620 0.731009 0.044551 0.054071 0.000320 0.006934 0.000001 0.000736
102 0.064092 0.727628 0.044476 0.054383 0.000327 0.007161 0.000001 0.000773
103 0.064564 0.724262 0.044388 0.054685 0.000335 0.007391 0.000001 0.000815
104 0.065036 0.720909 0.044288 0.054977 0.000343 0.007623 0.000001 0.000855
105 0.065507 0.717565 0.044180 0.055262 0.000351 0.007859 0.000001 0.000896
106 0.065978 0.714226 0.044065 0.055540 0.000358 0.008099 0.000001 0.000942
107 0.066448 0.710890 0.043945 0.055813 0.000366 0.008341 0.000001 0.000985
108 0.066917 0.707552 0.043823 0.056083 0.000374 0.008588 0.000001 0.001030
109 0.067387 0.704209 0.043702 0.056350 0.000382 0.008838 0.000001 0.001080
110 0.067856 0.700859 0.043582 0.056618 0.000389 0.009091 0.000001 0.001128
111 0.068324 0.697497 0.043466 0.056886 0.000397 0.009349 0.000001 0.001177
112 0.068792 0.694122 0.043357 0.057157 0.000404 0.009611 0.000001 0.001232
113 0.069260 0.690730 0.043255 0.057432 0.000412 0.009878 0.000001 0.001284
114 0.069727 0.687318 0.043164 0.057711 0.000420 0.010149 0.000001 0.001339
115 0.070194 0.683885 0.043084 0.057996 0.000427 0.010424 0.000002 0.001399
116 0.070661 0.680427 0.043016 0.058288 0.000435 0.010705 0.000002 0.001457
117 0.071127 0.676945 0.042964 0.058588 0.000443 0.010992 0.000002 0.001517
118 0.071593 0.673435 0.042927 0.058896 0.000451 0.011283 0.000002 0.001584
119 0.072059 0.669897 0.042907 0.059214 0.000459 0.011581 0.000002 0.001648
120 0.072525 0.666330 0.042904 0.059542 0.000466 0.011884 0.000002 0.001716
121 0.072990 0.662733 0.042920 0.059880 0.000474 0.012194 0.000002 0.001790
122 0.073455 0.659106 0.042955 0.060228 0.000482 0.012510 0.000002 0.001862
123 0.073919 0.655450 0.043009 0.060587 0.000490 0.012832 0.000002 0.001938
124 0.074384 0.651764 0.043083 0.060957 0.000498 0.013161 0.000002 0.002021
125 0.074848 0.648050 0.043176 0.061337 0.000506 0.013497 0.000002 0.002102
126 0.075312 0.644309 0.043289 0.061727 0.000514 0.013840 0.000002 0.002188
127 0.075776 0.640541 0.043420 0.062127 0.000522 0.014189 0.000002 0.002281
128 0.076239 0.636750 0.043569 0.062537 0.000530 0.014546 0.000002 0.002373
129 0.076703 0.632936 0.043736 0.062954 0.000538 0.014910 0.000003 0.002470
130 0.077166 0.629103 0.043919 0.063379 0.000546 0.015282 0.000003 0.002575
131 0.077629 0.625252 0.044117 0.063811 0.000554 0.015660 0.000003 0.002679
132 0.078091 0.621387 0.044329 0.064248 0.000562 0.016046 0.000003 0.002789
133 0.078554 0.617510 0.044553 0.064690 0.000570 0.016439 0.000003 0.002907
134 0.079016 0.613625 0.044788 0.065135 0.000578 0.016838 0.000003 0.003024
135 0.079478 0.609734 0.045032 0.065581 0.000586 0.017245 0.000003 0.003148
136 0.079940 0.605842 0.045284 0.066027 0.000594 0.017658 0.000003 0.003280
137 0.080402 0.601952 0.045540 0.066473 0.000602 0.018078 0.000003 0.003411
138 0.080863 0.598066 0.045800 0.066915 0.000609 0.018504 0.000004 0.003549
139 0.081325 0.594189 0.046062 0.067353 0.000617 0.018937 0.000004 0.003696
140 0.081786 0.590324 0.046322 0.067785 0.000624 0.019375 0.000004 0.003843
141 0.082247 0.586474 0.046579 0.068210 0.000631 0.019818 0.000004 0.003996
142 0.082708 0.582643 0.046831 0.068625 0.000638 0.020267 0.000004 0.004158
143 0.083168 0.578834 0.047076 0.069029 0.000645 0.020721 0.000004 0.004319
144 0.083629 0.575049 0.047311 0.069421 0.000652 0.021179 0.000004 0.004487
145 0.084089 0.571292 0.047535 0.069799 0.000659 0.021642 0.000005 0.004664
146 0.084550 0.567565 0.047745 0.070162 0.000666 0.022108 0.000005 0.004840
147 0.085010 0.563871 0.047940 0.070507 0.000672 0.022578 0.000005 0.005022
148 0.085469 0.560211 0.048118 0.070835 0.000678 0.023051 0.000005 0.005213
149 0.085929 0.556589 0.048277 0.071143 0.000684 0.023526 0.000005 0.005402
150 0.086389 0.553004 0.048415 0.071431 0.000690 0.024005 0.000005 0.005598
151 0.086848 0.549458 0.048532 0.071698 0.000695 0.024485 0.000006 0.005802
152 0.087307 0.545953 0.048625 0.071942 0.000700 0.024967 0.000006 0.006004
153 0.087766 0.542488 0.048694 0.072163 0.000705 0.025451 0.000006 0.006211
154 0.088225 0.539065 0.048737 0.072361 0.000710 0.025935 0.000006 0.006426
155 0.088683 0.535682 0.048754 0.072534 0.000714 0.026421 0.000006 0.006638
156 0.089142 0.532340 0.048745 0.072683 0.000718 0.026908 0.000006 0.006856
157 0.089600 0.529038 0.048708 0.072806 0.000722 0.027395 0.000007 0.007080
158 0.090058 0.525775 0.048643 0.072905 0.000726 0.027883 0.000007 0.007302
159 0.090516 0.522549 0.048551 0.072980 0.000729 0.028371 0.000007 0.007528
160 0.090974 0.519359 0.048431 0.073029 0.000732 0.028859 0.000007 0.007761
161 0.091431 0.516203 0.048284 0.073055 0.000735 0.029347 0.000007 0.007990
162 0.091889 0.513078 0.048110 0.073056 0.000738 0.029836 0.000007 0.008223
163 0.092346 0.509983 0.047910 0.073035 0.000740 0.030325 0.000008 0.008462
164 0.092803 0.506914 0.047684 0.072991 0.000742 0.030815 0.000008 0.008698
165 0.093260 0.503868 0.047434 0.072926 0.000744 0.031305 0.000008 0.008938
166 0.093716 0.500844 0.047160 0.072840 0.000745 0.031796 0.000008 0.009183
167 0.094173 0.497836 0.046863 0.072735 0.000747 0.032288 0.000008 0.009425
168 0.094629 0.494843 0.046546 0.072612 0.000748 0.032782 0.000008 0.009670
169 0.095085 0.491860 0.046209 0.072471 0.000749 0.033277 0.000009 0.009921
170 0.095541 0.488885 0.045854 0.072314 0.000749 0.033774 0.000009 0.010169
171 0.095997 0.485912 0.045483 0.072143 0.000750 0.034274 0.000009 0.010421
172 0.096452 0.482940 0.045096 0.071959 0.000751 0.034777 0.000009 0.010680
173 0.096908 0.479965 0.044697 0.071763 0.000751 0.035283 0.000009 0.010936
174 0.097363 0.476983 0.044286 0.071556 0.000751 0.035793 0.000010 0.011197
175 0.097818 0.473990 0.043865 0.071342 0.000751 0.036308 0.000010 0.011465
176 0.098273 0.470983 0.043438 0.071119 0.000751 0.036828 0.000010 0.011731
177 0.098727 0.467960 0.043004 0.070891 0.000751 0.037354 0.000010 0.012004
178 0.099182 0.464917 0.042566 0.070659 0.000750 0.037886 0.000011 0.012285
179 0.099636 0.461851 0.042126 0.070424 0.000750 0.038425 0.000011 0.012567
180 0.100090 0.458759 0.041685 0.070187 0.000749 0.038971 0.000011 0.012856
181 0.100544 0.455639 0.041246 0.069950 0.000748 0.039526 0.000011 0.013155
182 0.100998 0.452489 0.040809 0.069713 0.000748 0.040089 0.000011 0.013456
183 0.101451 0.449306 0.040376 0.069479 0.000747 0.040662 0.000012 0.013767
184 0.101905 0.446088 0.039949 0.069248 0.000746 0.041245 0.000012 0.014090
185 0.102358 0.442834 0.039530 0.069020 0.000745 0.041839 0.000012 0.014418
186 0.102811 0.439543 0.039118 0.068798 0.000744 0.042443 0.000012 0.014758
187 0.103264 0.436213 0.038716 0.068582 0.000744 0.043060 0.000013 0.015112
188 0.103716 0.432843 0.038324 0.068372 0.000743 0.043689 0.000013 0.015473
189 0.104169 0.429433 0.037944 0.068169 0.000742 0.044330 0.000013 0.015849
190 0.104621 0.425982 0.037576 0.067973 0.000741 0.044985 0.000014 0.016243
191 0.105073 0.422491 0.037221 0.067786 0.000740 0.045653 0.000014 0.016646
192 0.105525 0.418958 0.036879 0.067606 0.000739 0.046336 0.000014 0.017067
193 0.105977 0.415385 0.036551 0.067435 0.000738 0.047032 0.000014 0.017508
194 0.106429 0.411772 0.036237 0.067272 0.000737 0.047744 0.000015 0.017962
195 0.106880 0.408120 0.035937 0.067117 0.000735 0.048470 0.000015 0.018437
196 0.107332 0.404430 0.035651 0.066970 0.000734 0.049211 0.000015 0.018934
197 0.107783 0.400702 0.035379 0.066830 0.000733 0.049968 0.000016 0.019448
198 0.108234 0.396938 0.035120 0.066697 0.000732 0.050740 0.000016 0.019985
199 0.108685 0.393140 0.034875 0.066571 0.000731 0.051527 0.000016 0.020547
200 0.109135 0.389309 0.034643 0.066450 0.000730 0.052330 0.000017 0.021129
201 0.109586 0.385447 0.034424 0.066334 0.000729 0.053149 0.000017 0.021737
202 0.110036 0.381555 0.034216 0.066222 0.000728 0.053982 0.000017 0.022373
203 0.110486 0.377637 0.034018 0.066114 0.000727 0.054831 0.000018 0.023031
204 0.110936 0.373692 0.033831 0.066008 0.000725 0.055695 0.000018 0.023717
205 0.111386 0.369725 0.033653 0.065903 0.000724 0.056573 0.000018 0.024434
206 0.111835 0.365736 0.033483 0.065797 0.000723 0.057466 0.000019 0.025175
207 0.112285 0.361728 0.033320 0.065691 0.000721 0.058374 0.000019 0.025947
208 0.112734 0.357704 0.033163 0.065582 0.000719 0.059295 0.000019 0.026752
209 0.113183 0.353664 0.033011 0.065470 0.000718 0.060230 0.000020 0.027583
210 0.113632 0.349611 0.032862 0.065352 0.000716 0.061178 0.000020 0.028446
211 0.114081 0.345548 0.032716 0.065229 0.000715 0.062139 0.000021 0.029344
212 0.114529 0.341476 0.032571 0.065097 0.000713 0.063112 0.000021 0.030270
213 0.114978 0.337398 0.032426 0.064957 0.000711 0.064097 0.000021 0.031229
214 0.115426 0.333314 0.032280 0.064806 0.000709 0.065093 0.000022 0.032224
215 0.115874 0.329227 0.032132 0.064644 0.000707 0.066100 0.000022 0.033248
216 0.116322 0.325139 0.031980 0.064469 0.000704 0.067117 0.000023 0.034307
217 0.116770 0.321051 0.031823 0.064281 0.000702 0.068144 0.000023 0.035402
218 0.117217 0.316965 0.031661 0.064077 0.000699 0.069181 0.000023 0.036527
219 0.117664 0.312882 0.031492 0.063856 0.000697 0.070227 0.000024 0.037687
220 0.118112 0.308803 0.031315 0.063619 0.000694 0.071280 0.000024 0.038884
221 0.118559 0.304730 0.031129 0.063362 0.000691 0.072342 0.000025 0.040111
222 0.119005 0.300663 0.030934 0.063087 0.000688 0.073411 0.000025 0.041373
223 0.119452 0.296604 0.030728 0.062791 0.000684 0.074487 0.000026 0.042672
224 0.119898 0.292552 0.030511 0.062473 0.000681 0.075570 0.000026 0.044002
225 0.120345 0.288510 0.030283 0.062134 0.000677 0.076658 0.000027 0.045366
226 0.120791 0.284477 0.030041 0.061772 0.000674 0.077752 0.000027 0.046766
227 0.121236 0.280454 0.029787 0.061387 0.000670 0.078851 0.000028 0.048197
228 0.121682 0.276442 0.029519 0.060979 0.000666 0.079955 0.000028 0.049663
229 0.122127 0.272440 0.029238 0.060546 0.000662 0.081063 0.000029 0.051164
230 0.122573 0.268448 0.028942 0.060089 0.000657 0.082176 0.000029 0.052695
231 0.123018 0.264468 0.028632 0.059607 0.000653 0.083292 0.000030 0.054261
232 0.123463 0.260499 0.028308 0.059101 0.000648 0.084412 0.000030 0.055862
233 0.123907 0.256540 0.027969 0.058570 0.000643 0.085535 0.000031 0.057492
234 0.124352 0.252593 0.027616 0.058014 0.000638 0.086661 0.000031 0.059157
235 0.124796 0.248656 0.027249 0.057433 0.000633 0.087790 0.000032 0.060856
236 0.125240 0.244730 0.026867 0.056828 0.000628 0.088922 0.000032 0.062585
237 0.125684 0.240814 0.026472 0.056199 0.000622 0.090056 0.000033 0.064348
238 0.126128 0.236909 0.026063 0.055546 0.000617 0.091193 0.000033 0.066146
239 0.126571 0.233014 0.025641 0.054870 0.000611 0.092331 0.000034 0.067974
240 0.127015 0.229128 0.025207 0.054172 0.000605 0.093472 0.000034 0.069835
241 0.127458 0.225253 0.024760 0.053452 0.000599 0.094615 0.000035 0.071732
242 0.127901 0.221388 0.024302 0.052710 0.000593 0.095760 0.000035 0.073660
243 0.128343 0.217532 0.023834 0.051948 0.000587 0.096906 0.000036 0.075622
244 0.128786 0.213686 0.023355 0.051167 0.000581 0.098054 0.000036 0.077620
245 0.129228 0.209850 0.022866 0.050367 0.000574 0.099204 0.000037 0.079650
246 0.129670 0.206024 0.022369 0.049549 0.000567 0.100355 0.000037 0.081716
247 0.130112 0.202208 0.021864 0.048714 0.000561 0.101508 0.000038 0.083820
248 0.130554 0.198403 0.021352 0.047864 0.000554 0.102662 0.000038 0.085957
249 0.130995 0.194608 0.020834 0.046999 0.000547 0.103816 0.000039 0.088132
250 0.131436 0.190825 0.020310 0.046121 0.000540 0.104972 0.000040 0.090347
251 0.131877 0.187053 0.019782 0.045230 0.000533 0.106128 0.000040 0.092598
252 0.132318 0.183294 0.019250 0.044329 0.000526 0.107285 0.000040 0.094890
253 0.132759 0.179548 0.018715 0.043417 0.000519 0.108442 0.000041 0.097225
254 0.133199 0.175816 0.018178 0.042497 0.000512 0.109599 0.000042 0.099599
255 0.133639 0.172099 0.017640 0.041570 0.000505 0.110755 0.000042 0.102017
256 0.134079 0.168398 0.017103 0.040637 0.000498 0.111910 0.000043 0.104481
257 0.134519 0.164714 0.016566 0.039699 0.000490 0.113064 0.000043 0.106989
258 0.134959 0.161048 0.016030 0.038758 0.000483 0.114215 0.000044 0.109545
259 0.135398 0.157402 0.015497 0.037814 0.000475 0.115365 0.000044 0.112151
260 0.135837 0.153777 0.014967 0.036869 0.000468 0.116511 0.000045 0.114806
261 0.136276 0.150174 0.014440 0.035925 0.000461 0.117654 0.000045 0.117513
262 0.136714 0.146595 0.013919 0.034982 0.000453 0.118792 0.000046 0.120275
