#Step_num time omega delta |10><10| |r0><r0| |d0><d0|
0 0.000000 0.000000 0.000000 1.000000 0.000000 0.000000 0.000000 0.000000 0.000000 0.000000 0.000000 0.000000 0.000000 0.000000
1 0.010000 0.000000 0.000000 1.000000 0.000000 0.000000 0.000000 0.000000 0.000000 0.000000 0.000000 0.000000 0.000000 0.000000
2 0.110000 0.000000 0.000000 1.000000 0.000000 0.000000 0.000000 0.000000 0.000000 0.000000 0.000000 0.000000 0.000000 0.000000
3 0.210000 0.000000 0.000000 1.000000 0.000000 0.000000 0.000000 0.000000 0.000000 0.000000 0.000000 0.000000 0.000000 0.000000
4 0.250135 0.000000 0.000000 1.000000 0.000000 0.000000 0.000000 0.000000 0.000000 0.000000 0.000000 0.000000 0.000000 0.000000
5 0.287227 0.000000 0.000000 1.000000 0.000000 0.000000 0.000000 0.000000 0.000000 0.000000 0.000000 0.000000 0.000000 0.000000
6 0.326554 0.000000 0.000000 1.000000 0.000000 0.000000 0.000000 0.000000 0.000000 0.000000 0.000000 0.000000 0.000000 0.000000
7 0.354986 0.000000 0.000000 1.000000 0.000000 0.000000 0.000000 0.000000 0.000000 0.000000 0.000000 0.000000 0.000000 0.000000
8 0.383455 0.000000 0.000000 1.000000 0.000000 0.000000 0.000000 0.000000 0.000000 0.000000 0.000000 0.000000 0.000000 0.000000
9 0.402262 0.000000 0.000000 1.000000 0.000000 0.000000 0.000000 0.000000 0.000000 0.000000 0.000000 0.000000 0.000000 0.000000
10 0.416385 0.000000 0.000000 1.000000 0.000000 0.000000 0.000000 0.000000 0.000000 0.000000 0.000000 0.000000 0.000000 0.000000
11 0.429194 0.000000 0.000000 1.000000 0.000000 0.000000 0.000000 0.000000 0.000000 0.000000 0.000000 0.000000 0.000000 0.000000
12 0.440948 0.000000 0.000000 1.000000 0.000000 0.000000 0.000000 0.000000 0.000000 0.000000 0.000000 0.000000 0.000000 0.000000
13 0.453283 0.000000 0.000000 1.000000 0.000000 0.000000 0.000000 0.000000 0.000000 0.000000 0.000000 0.000000 0.000000 0.000000
14 0.464512 0.000000 0.000000 1.000000 0.000000 0.000000 0.000000 0.000000 0.000000 0.000000 0.000000 0.000000 0.000000 0.000000
15 0.474757 0.000000 0.000000 1.000000 0.000000 0.000000 0.000000 0.000000 0.000000 0.000000 0.000000 0.000000 0.000000 0.000000
16 0.484718 0.000000 0.000000 1.000000 0.000000 0.000000 0.000000 0.000000 0.000000 0.000000 0.000000 0.000000 0.000000 0.000000
17 0.494645 0.000000 0.000000 1.000000 0.000000 0.000000 0.000000 0.000000 0.000000 0.000000 0.000000 0.000000 0.000000 0.000000
18 0.504558 0.000000 0.000000 0.999999 0.000000 0.000000 0.000000 0.000000 0.000000 0.000000 0.000001 0.000000 0.000000 0.000000
19 0.514463 0.000000 0.000000 0.999999 0.000000 0.000000 0.000000 0.000000 0.000000 0.000000 0.000001 0.000000 0.000000 0.000000
20 0.524362 0.000000 0.000000 0.999999 0.000000 0.000000 0.000000 0.000000 0.000000 0.000000 0.000002 0.000000 0.000000 0.000000
21 0.534253 0.000000 0.000000 0.999998 0.000000 0.000000 0.000000 0.000000 0.000000 0.000000 0.000003 0.000000 0.000000 0.000000
22 0.544142 0.000000 0.000000 0.999996 0.000000 0.000000 0.000000 0.000000 0.000000 0.000000 0.000004 0.000000 0.000000 0.000000
23 0.554031 0.000000 0.000000 0.999994 0.000000 0.000000 0.000000 0.000000 0.000000 0.000000 0.000007 0.000000 0.000000 0.000000
24 0.563910 0.000000 0.000000 0.999991 0.000000 0.000000 0.000000 0.000000 0.000000 0.000000 0.000011 0.000000 0.000000 0.000000
25 0.573791 0.000000 0.000000 0.999986 0.000000 0.000000 0.000000 0.000000 0.000000 0.000000 0.000017 0.000000 0.000000 0.000000
26 0.583680 0.000000 0.000000 0.999978 0.000000 0.000000 0.000000 0.000000 0.000000 0.000000 0.000026 0.000000 0.000000 0.000000
27 0.593544 0.000000 0.000000 0.999966 0.000000 0.000000 0.000000 0.000000 0.000000 0.000000 0.000041 0.000000 0.000000 0.000000
28 0.603418 0.000000 0.000000 0.999949 0.000000 0.000000 0.000000 0.000000 0.000000 0.000000 0.000062 0.000000 0.000000 0.000000
29 0.613327 0.000000 0.000000 0.999923 0.000000 0.000000 0.000000 0.000000 0.000000 0.000000 0.000096 0.000000 0.000000 0.000000
30 0.623157 0.000000 0.000000 0.999886 0.000000 0.000000 0.000000 0.000000 0.000000 0.000000 0.000145 0.000000 0.000000 0.000000
31 0.633015 0.000000 0.000000 0.999831 0.000000 0.000000 0.000000 0.000000 0.000000 0.000000 0.000218 0.000000 0.000000 0.000000
32 0.642990 0.000000 0.000000 0.999751 0.000000 0.000000 0.000000 0.000000 0.000000 0.000000 0.000328 0.000000 0.000000 0.000000
33 0.652736 0.000000 0.000000 0.999640 0.000000 0.000000 0.000000 0.000000 0.000000 0.000000 0.000484 0.000000 0.000000 0.000000
34 0.662545 0.000000 0.000000 0.999481 0.000000 0.000000 0.000000 0.000000 0.000000 0.000000 0.000711 0.000000 0.000000 0.000000
35 0.672704 0.000000 0.000000 0.999249 0.000000 0.000000 0.000000 0.000000 0.000000 0.000000 0.001051 0.000000 0.000000 0.000000
36 0.682241 0.000000 0.000000 0.998946 0.000000 0.000000 0.000000 0.000000 0.000000 0.000000 0.001505 0.000000 0.000000 0.000000
37 0.691903 0.000000 0.000000 0.998526 0.000000 0.000000 0.000000 0.000000 0.000000 0.000000 0.002150 0.000000 0.000000 0.000000
38 0.700946 0.000000 0.000000 0.997996 0.000000 0.000000 0.000000 0.000000 0.000000 0.000000 0.002983 0.000000 0.000000 0.000000
39 0.710539 0.000000 0.000000 0.997245 0.000000 0.000000 0.000000 0.000000 0.000000 0.000000 0.004191 0.000000 0.000000 0.000000
40 0.719521 0.000000 0.000000 0.996315 0.000000 0.000000 0.000000 0.000000 0.000000 0.000000 0.005726 0.000000 0.000000 0.000000
41 0.728309 0.000000 0.000000 0.995135 0.000000 0.000000 0.000000 0.000000 0.000000 0.000000 0.007723 0.000000 0.000000 0.000000
42 0.736259 0.000000 0.000000 0.993783 0.000000 0.000000 0.000000 0.000000 0.000000 0.000000 0.010072 0.000000 0.000000 0.000000
43 0.744776 0.000000 0.000000 0.991966 0.000000 0.000000 0.000000 0.000000 0.000000 0.000000 0.013314 0.000000 0.000000 0.000000
44 0.753072 0.000000 0.000000 0.989753 0.000000 0.000000 0.000000 0.000000 0.000000 0.000000 0.017377 0.000000 0.000000 0.000000
45 0.760655 0.000000 0.000000 0.987275 0.000000 0.000000 0.000000 0.000000 0.000000 0.000000 0.022064 0.000000 0.000000 0.000000
46 0.767655 0.000000 0.000000 0.984535 0.000000 0.000000 0.000000 0.000000 0.000000 0.000000 0.027396 0.000000 0.000000 0.000000
47 0.774920 0.000000 0.000000 0.981166 0.000000 0.000000 0.000000 0.000000 0.000000 0.000000 0.034158 0.000000 0.000000 0.000000
48 0.781774 0.000000 0.000000 0.977431 0.000000 0.000000 0.000000 0.000000 0.000000 0.000000 0.041901 0.000000 0.000000 0.000000
49 0.788609 0.000000 0.000000 0.973105 0.000000 0.000000 0.000000 0.000000 0.000000 0.000000 0.051181 0.000000 0.000000 0.000000
50 0.795194 0.000000 0.000000 0.968313 0.000000 0.000000 0.000000 0.000000 0.000000 0.000000 0.061843 0.000000 0.000000 0.000000
51 0.801375 0.000000 0.000000 0.963211 0.000000 0.000000 0.000000 0.000000 0.000000 0.000000 0.073632 0.000000 0.000000 0.000000
52 0.807232 0.000000 0.000000 0.957801 0.000000 0.000000 0.000000 0.000000 0.000000 0.000000 0.086623 0.000000 0.000000 0.000000
53 0.812868 0.000000 0.000000 0.952040 0.000000 0.000000 0.000000 0.000000 0.000000 0.000000 0.101017 0.000000 0.000000 0.000000
54 0.818336 0.000000 0.000000 0.945913 0.000000 0.000000 0.000000 0.000000 0.000000 0.000000 0.116973 0.000000 0.000000 0.000000
55 0.823647 0.000000 0.000000 0.939446 0.000000 0.000000 0.000000 0.000000 0.000000 0.000000 0.134561 0.000000 0.000000 0.000000
56 0.828790 0.000000 0.000000 0.932695 0.000000 0.000000 0.000000 0.000000 0.000000 0.000000 0.153767 0.000000 0.000000 0.000000
57 0.833760 0.000000 0.000000 0.925724 0.000000 0.000000 0.000000 0.000000 0.000000 0.000000 0.174552 0.000000 0.000000 0.000000
58 0.838565 0.000000 0.000000 0.918574 0.000000 0.000000 0.000000 0.000000 0.000000 0.000000 0.196920 0.000000 0.000000 0.000000
59 0.843223 0.000000 0.000000 0.911277 0.000000 0.000000 0.000000 0.000000 0.000000 0.000000 0.220915 0.000000 0.000000 0.000000
60 0.847752 0.000000 0.000000 0.903856 0.000000 0.000000 0.000000 0.000000 0.000000 0.000000 0.246593 0.000000 0.000000 0.000000
61 0.852163 0.000000 0.000000 0.896342 0.000000 0.000000 0.000000 0.000000 0.000000 0.000000 0.273996 0.000000 0.000000 0.000000
62 0.856463 0.000000 0.000000 0.888770 0.000000 0.000000 0.000000 0.000000 0.000000 0.000000 0.303131 0.000000 0.000000 0.000000
63 0.860653 0.000000 0.000000 0.881184 0.000000 0.000000 0.000000 0.000000 0.000000 0.000000 0.333967 0.000000 0.000000 0.000000
64 0.864733 0.000000 0.000000 0.873625 0.000000 0.000000 0.000000 0.000000 0.000000 0.000000 0.366444 0.000000 0.000000 0.000000
65 0.868703 0.000000 0.000000 0.866133 0.000000 0.000000 0.000000 0.000000 0.000000 0.000000 0.400490 0.000000 0.000000 0.000000
66 0.872565 0.000000 0.000000 0.858739 0.000000 0.000000 0.000000 0.000000 0.000000 0.000000 0.436027 0.000000 0.000000 0.000000
67 0.876319 0.000000 0.000000 0.851469 0.000000 0.000000 0.000000 0.000000 0.000000 0.000000 0.472981 0.000000 0.000000 0.000000
68 0.879970 0.000000 0.000000 0.844340 0.000000 0.000000 0.000000 0.000000 0.000000 0.000000 0.511277 0.000000 0.000000 0.000000
69 0.883519 0.000000 0.000000 0.837367 0.000000 0.000000 0.000000 0.000000 0.000000 0.000000 0.550840 0.000000 0.000000 0.000000
70 0.886971 0.000000 0.000000 0.830560 0.000000 0.000000 0.000000 0.000000 0.000000 0.000000 0.591587 0.000000 0.000000 0.000000
71 0.890328 0.000000 0.000000 0.823923 0.000000 0.000000 0.000000 0.000000 0.000000 0.000000 0.633438 0.000000 0.000000 0.000000
72 0.893593 0.000000 0.000000 0.817461 0.000000 0.000000 0.000000 0.000000 0.000000 0.000000 0.676309 0.000000 0.000000 0.000000
73 0.896768 0.000000 0.000000 0.811172 0.000000 0.000000 0.000000 0.000000 0.000000 0.000000 0.720124 0.000000 0.000000 0.000000
74 0.899857 0.000000 0.000000 0.805053 0.000000 0.000000 0.000000 0.000000 0.000000 0.000000 0.764814 0.000000 0.000000 0.000000
75 0.902865 0.000000 0.000000 0.799100 0.000000 0.000000 0.000000 0.000000 0.000000 0.000000 0.810320 0.000000 0.000000 0.000000
76 0.905794 0.000000 0.000000 0.793305 0.000000 0.000000 0.000000 0.000000 0.000000 0.000000 0.856593 0.000000 0.000000 0.000000
77 0.908649 0.000000 0.000000 0.787662 0.000000 0.000000 0.000000 0.000000 0.000000 0.000000 0.903593 0.000000 0.000000 0.000000
78 0.911435 0.000000 0.000000 0.782162 0.000000 0.000000 0.000000 0.000000 0.000000 0.000000 0.951288 0.000000 0.000000 0.000000
79 0.914155 0.000000 0.000000 0.776799 0.000000 0.000000 0.000000 0.000000 0.000000 0.000000 0.999649 0.000000 0.000000 0.000000
80 0.916812 0.000000 0.000000 0.771566 0.000000 0.000000 0.000000 0.000000 0.000000 0.000000 1.048654 0.000000 0.000000 0.000000
81 0.919411 0.000000 0.000000 0.766458 0.000000 0.000000 0.000000 0.000000 0.000000 0.000000 1.098278 0.000000 0.000000 0.000000
82 0.921954 0.000000 0.000000 0.761472 0.000000 0.000000 0.000000 0.000000 0.000000 0.000000 1.148502 0.000000 0.000000 0.000000
83 0.924445 0.000000 0.000000 0.756604 0.000000 0.000000 0.000000 0.000000 0.000000 0.000000 1.199306 0.000000 0.000000 0.000000
84 0.926885 0.000000 0.000000 0.751852 0.000000 0.000000 0.000000 0.000000 0.000000 0.000000 1.250669 0.000000 0.000000 0.000000
85 0.929278 0.000000 0.000000 0.747215 0.000000 0.000000 0.000000 0.000000 0.000000 0.000000 1.302575 0.000000 0.000000 0.000000
86 0.931625 0.000000 0.000000 0.742692 0.000000 0.000000 0.000000 0.000000 0.000000 0.000000 1.355005 0.000000 0.000000 0.000000
87 0.933929 0.000000 0.000000 0.738282 0.000000 0.000000 0.000000 0.000000 0.000000 0.000000 1.407941 0.000000 0.000000 0.000000
88 0.936193 0.000000 0.000000 0.733986 0.000000 0.000000 0.000000 0.000000 0.000000 0.000000 1.461368 0.000000 0.000000 0.000000
89 0.938417 0.000000 0.000000 0.729803 0.000000 0.000000 0.000000 0.000000 0.000000 0.000000 1.515268 0.000000 0.000000 0.000000
90 0.940603 0.000000 0.000000 0.725734 0.000000 0.000000 0.000000 0.000000 0.000000 0.000000 1.569625 0.000000 0.000000 0.000000
91 0.942753 0.000000 0.000000 0.721778 0.000000 0.000000 0.000000 0.000000 0.000000 0.000000 1.624419 0.000000 0.000000 0.000000
92 0.944869 0.000000 0.000000 0.717935 0.000000 0.000000 0.000000 0.000000 0.000000 0.000000 1.679635 0.000000 0.000000 0.000000
93 0.946952 0.000000 0.000000 0.714205 0.000000 0.000000 0.000000 0.000000 0.000000 0.000000 1.735251 0.000000 0.000000 0.000000
94 0.949002 0.000000 0.000000 0.710586 0.000000 0.000000 0.000000 0.000000 0.000000 0.000000 1.791249 0.000000 0.000000 0.000000
95 0.951022 0.000000 0.000000 0.707077 0.000000 0.000000 0.000000 0.000000 0.000000 0.000000 1.847610 0.000000 0.000000 0.000000
96 0.953012 0.000000 0.000000 0.703676 0.000000 0.000000 0.000000 0.000000 0.000000 0.000000 1.904312 0.000000 0.000000 0.000000
97 0.954973 0.000000 0.000000 0.700380 0.000000 0.000000 0.000000 0.000000 0.000000 0.000000 1.961336 0.000000 0.000000 0.000000
98 0.956906 0.000000 0.000000 0.697188 0.000000 0.000000 0.000000 0.000000 0.000000 0.000000 2.018664 0.000000 0.000000 0.000000
99 0.958812 0.000000 0.000000 0.694094 0.000000 0.000000 0.000000 0.000000 0.000000 0.000000 2.076275 0.000000 0.000000 0.000000
100 0.960692 0.000000 0.000000 0.691095 0.000000 0.000000 0.000000 0.000000 0.000000 0.000000 2.134152 0.000000 0.000000 0.000000
101 0.962546 0.000000 0.000000 0.688186 0.000000 0.000000 0.000000 0.000000 0.000000 0.000000 2.192279 0.000000 0.000000 0.000000
102 0.964376 0.000000 0.000000 0.685363 0.000000 0.000000 0.000000 0.000000 0.000000 0.000000 2.250639 0.000000 0.000000 0.000000
103 0.966182 0.000000 0.000000 0.682620 0.000000 0.000000 0.000000 0.000000 0.000000 0.000000 2.309218 0.000000 0.000000 0.000000
104 0.967965 0.000000 0.000000 0.679953 0.000000 0.000000 0.000000 0.000000 0.000000 0.000000 2.368004 0.000000 0.000000 0.000000
105 0.969725 0.000000 0.000000 0.677356 0.000000 0.000000 0.000000 0.000000 0.000000 0.000000 2.426983 0.000000 0.000000 0.000000
106 0.971464 0.000000 0.000000 0.674825 0.000000 0.000000 0.000000 0.000000 0.000000 0.000000 2.486144 0.000000 0.000000 0.000000
107 0.973181 0.000000 0.000000 0.672353 0.000000 0.000000 0.000000 0.000000 0.000000 0.000000 2.545478 0.000000 0.000000 0.000000
108 0.974879 0.000000 0.000000 0.669937 0.000000 0.000000 0.000000 0.000000 0.000000 0.000000 2.604975 0.000000 0.000000 0.000000
109 0.976556 0.000000 0.000000 0.667572 0.000000 0.000000 0.000000 0.000000 0.000000 0.000000 2.664627 0.000000 0.000000 0.000000
110 0.978214 0.000000 0.000000 0.665255 0.000000 0.000000 0.000000 0.000000 0.000000 0.000000 2.724426 0.000000 0.000000 0.000000
111 0.979853 0.000000 0.000000 0.662982 0.000000 0.000000 0.000000 0.000000 0.000000 0.000000 2.784366 0.000000 0.000000 0.000000
112 0.981475 0.000000 0.000000 0.660750 0.000000 0.000000 0.000000 0.000000 0.000000 0.000000 2.844441 0.000000 0.000000 0.000000
113 0.983079 0.000000 0.000000 0.658557 0.000000 0.000000 0.000000 0.000000 0.000000 0.000000 2.904646 0.000000 0.000000 0.000000
114 0.984665 0.000000 0.000000 0.656400 0.000000 0.000000 0.000000 0.000000 0.000000 0.000000 2.964975 0.000000 0.000000 0.000000
115 0.986235 0.000000 0.000000 0.654280 0.000000 0.000000 0.000000 0.000000 0.000000 0.000000 3.025425 0.000000 0.000000 0.000000
116 0.987789 0.000000 0.000000 0.652193 0.000000 0.000000 0.000000 0.000000 0.000000 0.000000 3.085992 0.000000 0.000000 0.000000
117 0.989328 0.000000 0.000000 0.650141 0.000000 0.000000 0.000000 0.000000 0.000000 0.000000 -3.136513 0.000000 0.000000 0.000000
118 0.990851 0.000000 0.000000 0.648123 0.000000 0.000000 0.000000 0.000000 0.000000 0.000000 -3.075723 0.000000 0.000000 0.000000
119 0.992360 0.000000 0.000000 0.646139 0.000000 0.000000 0.000000 0.000000 0.000000 0.000000 -3.014827 0.000000 0.000000 0.000000
120 0.993854 0.000000 0.000000 0.644190 0.000000 0.000000 0.000000 0.000000 0.000000 0.000000 -2.953827 0.000000 0.000000 0.000000
121 0.995335 0.000000 0.000000 0.642277 0.000000 0.000000 0.000000 0.000000 0.000000 0.000000 -2.892726 0.000000 0.000000 0.000000
122 0.996802 0.000000 0.000000 0.640400 0.000000 0.000000 0.000000 0.000000 0.000000 0.000000 -2.831529 0.000000 0.000000 0.000000
123 0.998256 0.000000 0.000000 0.638561 0.000000 0.000000 0.000000 0.000000 0.000000 0.000000 -2.770239 0.000000 0.000000 0.000000
124 0.999697 0.000000 0.000000 0.636761 0.000000 0.000000 0.000000 0.000000 0.000000 0.000000 -2.708859 0.000000 0.000000 0.000000
125 1.001126 0.000000 0.000000 0.635001 0.000000 0.000000 0.000000 0.000000 0.000000 0.000000 -2.647393 0.000000 0.000000 0.000000
126 1.002543 0.000000 0.000000 0.633282 0.000000 0.000000 0.000000 0.000000 0.000000 0.000000 -2.585846 0.000000 0.000000 0.000000
127 1.003948 0.000000 0.000000 0.631606 0.000000 0.000000 0.000000 0.000000 0.000000 0.000000 -2.524221 0.000000 0.000000 0.000000
128 1.005342 0.000000 0.000000 0.629974 0.000000 0.000000 0.000000 0.000000 0.000000 0.000000 -2.462523 0.000000 0.000000 0.000000
129 1.006724 0.000000 0.000000 0.628386 0.000000 0.000000 0.000000 0.000000 0.000000 0.000000 -2.400757 0.000000 0.000000 0.000000
130 1.008096 0.000000 0.000000 0.626842 0.000000 0.000000 0.000000 0.000000 0.000000 0.000000 -2.338927 0.000000 0.000000 0.000000
131 1.009457 0.000000 0.000000 0.625343 0.000000 0.000000 0.000000 0.000000 0.000000 0.000000 -2.277038 0.000000 0.000000 0.000000
132 1.010808 0.000000 0.000000 0.623889 0.000000 0.000000 0.000000 0.000000 0.000000 0.000000 -2.215094 0.000000 0.000000 0.000000
133 1.012149 0.000000 0.000000 0.622480 0.000000 0.000000 0.000000 0.000000 0.000000 0.000000 -2.153101 0.000000 0.000000 0.000000
134 1.013480 0.000000 0.000000 0.621115 0.000000 0.000000 0.000000 0.000000 0.000000 0.000000 -2.091062 0.000000 0.000000 0.000000
135 1.014802 0.000000 0.000000 0.619792 0.000000 0.000000 0.000000 0.000000 0.000000 0.000000 -2.028982 0.000000 0.000000 0.000000
136 1.016114 0.000000 0.000000 0.618511 0.000000 0.000000 0.000000 0.000000 0.000000 0.000000 -1.966865 0.000000 0.000000 0.000000
137 1.017417 0.000000 0.000000 0.617271 0.000000 0.000000 0.000000 0.000000 0.000000 0.000000 -1.904715 0.000000 0.000000 0.000000
138 1.018711 0.000000 0.000000 0.616068 0.000000 0.000000 0.000000 0.000000 0.000000 0.000000 -1.842536 0.000000 0.000000 0.000000
139 1.019997 0.000000 0.000000 0.614902 0.000000 0.000000 0.000000 0.000000 0.000000 0.000000 -1.780330 0.000000 0.000000 0.000000
140 1.021274 0.000000 0.000000 0.613769 0.000000 0.000000 0.000000 0.000000 0.000000 0.000000 -1.718101 0.000000 0.000000 0.000000
141 1.022543 0.000000 0.000000 0.612668 0.000000 0.000000 0.000000 0.000000 0.000000 0.000000 -1.655852 0.000000 0.000000 0.000000
142 1.023804 0.000000 0.000000 0.611597 0.000000 0.000000 0.000000 0.000000 0.000000 0.000000 -1.593585 0.000000 0.000000 0.000000
143 1.025058 0.000000 0.000000 0.610552 0.000000 0.000000 0.000000 0.000000 0.000000 0.000000 -1.531301 0.000000 0.000000 0.000000
144 1.026304 0.000000 0.000000 0.609531 0.000000 0.000000 0.000000 0.000000 0.000000 0.000000 -1.469003 0.000000 0.000000 0.000000
145 1.027542 0.000000 0.000000 0.608532 0.000000 0.000000 0.000000 0.000000 0.000000 0.000000 -1.406692 0.000000 0.000000 0.000000
146 1.028773 0.000000 0.000000 0.607553 0.000000 0.000000 0.000000 0.000000 0.000000 0.000000 -1.344369 0.000000 0.000000 0.000000
147 1.029997 0.000000 0.000000 0.606591 0.000000 0.000000 0.000000 0.000000 0.000000 0.000000 -1.282034 0.000000 0.000000 0.000000
148 1.031214 0.000000 0.000000 0.605645 0.000000 0.000000 0.000000 0.000000 0.000000 0.000000 -1.219689 0.000000 0.000000 0.000000
149 1.032424 0.000000 0.000000 0.604712 0.000000 0.000000 0.000000 0.000000 0.000000 0.000000 -1.157332 0.000000 0.000000 0.000000
150 1.033628 0.000000 0.000000 0.603790 0.000000 0.000000 0.000000 0.000000 0.000000 0.000000 -1.094964 0.000000 0.000000 0.000000
151 1.034826 0.000000 0.000000 0.602879 0.000000 0.000000 0.000000 0.000000 0.000000 0.000000 -1.032585 0.000000 0.000000 0.000000
152 1.036017 0.000000 0.000000 0.601978 0.000000 0.000000 0.000000 0.000000 0.000000 0.000000 -0.970194 0.000000 0.000000 0.000000
