#Step_num time omega delta |10><10| |r0><r0| |d0><d0|
0 0.000000 0.000000 0.000000 0.000000 0.000000 0.000000 0.000000 0.000000 0.000000 0.000000 0.000000 0.000000 0.000000 0.000000
1 0.010000 0.000000 0.000000 0.000000 0.000000 0.000000 0.000000 0.000000 0.000000 0.000000 0.000000 0.000000 0.000000 0.000000
2 0.110000 0.000000 0.000000 0.000000 0.000000 0.000000 0.000000 0.000000 0.000000 0.000000 0.000000 0.000000 0.000000 0.000000
3 0.210000 0.000000 0.000000 0.000000 0.000000 0.000000 0.000000 0.000000 0.000000 0.000000 0.000000 0.000000 0.000000 0.000000
4 0.249892 0.000000 0.000000 0.000000 0.000000 0.000000 0.000000 0.000000 0.000000 0.000000 0.000000 0.000000 0.000000 0.000000
5 0.289520 0.000000 0.000000 0.000000 0.000000 0.000000 0.000000 0.000000 0.000000 0.000000 0.000000 0.000000 0.000000 0.000000
6 0.331383 0.000000 0.000000 0.000000 0.000000 0.000000 0.000000 0.000000 0.000000 0.000000 0.000000 0.000000 0.000000 0.000000
7 0.358915 0.000000 0.000000 0.000000 0.000000 0.000000 0.000000 0.000000 0.000000 0.000000 0.000000 0.000000 0.000000 0.000000
8 0.387920 0.000000 0.000000 0.000000 0.000000 0.000000 0.000000 0.000000 0.000000 0.000000 0.000000 0.000000 0.000000 0.000000
9 0.405274 0.000000 0.000000 0.000000 0.000000 0.000000 0.000000 0.000000 0.000000 0.000000 0.000000 0.000000 0.000000 0.000000
10 0.419507 0.000000 0.000000 0.000000 0.000000 0.000000 0.000000 0.000000 0.000000 0.000000 0.000000 0.000000 0.000000 0.000000
11 0.432045 0.000000 0.000000 0.000000 0.000000 0.000000 0.000000 0.000000 0.000000 0.000000 0.000000 0.000000 0.000000 0.000000
12 0.443337 0.000000 0.000000 0.000000 0.000000 0.000000 0.000000 0.000000 0.000000 0.000000 0.000000 0.000000 0.000000 0.000000
13 0.451795 0.000000 0.000000 0.000000 0.000000 0.000000 0.000000 0.000000 0.000000 0.000000 0.000000 0.000000 0.000000 0.000000
14 0.459000 0.000000 0.000000 0.000000 0.000000 0.000000 0.000000 0.000000 0.000000 0.000000 0.000000 0.000000 0.000000 0.000000
15 0.465845 0.000000 0.000000 0.000000 0.000000 0.000000 0.000000 0.000000 0.000000 0.000000 0.000000 0.000000 0.000000 0.000000
16 0.472928 0.000000 0.000000 0.000000 0.000000 0.000000 0.000000 0.000000 0.000000 0.000000 0.000000 0.000000 0.000000 0.000000
17 0.479472 0.000000 0.000000 0.000000 0.000000 0.000000 0.000000 0.000000 0.000000 0.000000 0.000000 0.000000 0.000000 0.000000
18 0.485556 0.000000 0.000000 0.000000 0.000000 0.000000 0.000000 0.000000 0.000000 0.000000 0.000000 0.000000 0.000000 0.000000
19 0.491489 0.000000 0.000000 0.000000 0.000000 0.000000 0.000000 0.000000 0.000000 0.000000 0.000000 0.000000 0.000000 0.000000
20 0.497388 0.000000 0.000000 0.000000 0.000000 0.000000 0.000000 0.000000 0.000000 0.000000 0.000000 0.000000 0.000000 0.000000
21 0.503269 0.000000 0.000000 0.000000 0.000000 0.000000 0.000000 0.000000 0.000000 0.000000 0.000000 0.000000 0.000000 0.000000
22 0.509139 0.000000 0.000000 0.000000 0.000000 0.000000 0.000000 0.000000 0.000000 0.000000 0.000000 0.000000 0.000000 0.000000
23 0.515001 0.000000 0.000000 0.000000 0.000000 0.000000 0.000000 0.000000 0.000000 0.000001 0.000000 0.000000 0.000000 0.000000
24 0.520856 0.000000 0.000000 0.000000 0.000000 0.000000 0.000000 0.000000 0.000000 0.000001 0.000000 0.000000 0.000000 0.000000
25 0.526706 0.000000 0.000000 0.000000 0.000000 0.000000 0.000000 0.000000 0.000000 0.000001 0.000000 0.000000 0.000000 0.000000
26 0.532554 0.000000 0.000000 0.000000 0.000000 0.000000 0.000000 0.000000 0.000000 0.000002 0.000000 0.000000 0.000000 0.000000
27 0.538398 0.000000 0.000000 0.000000 0.000000 0.000000 0.000000 0.000000 0.000000 0.000002 0.000000 0.000000 0.000000 0.000000
28 0.544241 0.000000 0.000000 0.000000 0.000000 0.000000 0.000000 0.000000 0.000000 0.000003 0.000000 0.000000 0.000000 0.000000
29 0.550083 0.000000 0.000000 0.000000 0.000000 0.000000 0.000000 0.000000 0.000000 0.000004 0.000000 0.000000 0.000000 0.000000
30 0.555923 0.000000 0.000000 0.000000 0.000000 0.000000 0.000000 0.000000 0.000000 0.000005 0.000000 0.000000 0.000000 0.000000
31 0.561763 0.000000 0.000000 0.000000 0.000000 0.000000 0.000000 0.000000 0.000000 0.000006 0.000000 0.000000 0.000000 0.000000
32 0.567601 0.000000 0.000000 0.000000 0.000000 0.000000 0.000000 0.000000 0.000000 0.000008 0.000000 0.000000 0.000000 0.000000
33 0.573440 0.000000 0.000000 0.000000 0.000000 0.000000 0.000000 0.000000 0.000000 0.000010 0.000000 0.000000 0.000000 0.000000
34 0.579278 0.000000 0.000000 0.000000 0.000000 0.000000 0.000000 0.000000 0.000000 0.000014 0.000000 0.000000 0.000000 0.000000
35 0.585115 0.000000 0.000000 0.000000 0.000000 0.000000 0.000000 0.000000 0.000000 0.000018 0.000000 0.000000 0.000000 0.000000
36 0.590953 0.000000 0.000000 0.000000 0.000000 0.000000 0.000000 0.000000 0.000000 0.000023 0.000000 0.000000 0.000000 0.000000
37 0.596790 0.000000 0.000000 0.000000 0.000000 0.000000 0.000000 0.000000 0.000000 0.000030 0.000000 0.000000 0.000000 0.000000
38 0.602627 0.000000 0.000000 0.000000 0.000000 0.000000 0.000000 0.000000 0.000000 0.000038 0.000000 0.000000 0.000000 0.000000
39 0.608464 0.000000 0.000000 0.000000 0.000000 0.000000 0.000000 0.000000 0.000000 0.000049 0.000000 0.000000 0.000000 0.000000
40 0.614301 0.000000 0.000000 0.000000 0.000000 0.000000 0.000000 0.000000 0.000000 0.000064 0.000000 0.000000 0.000000 0.000000
41 0.620138 0.000000 0.000000 0.000000 0.000000 0.000000 0.000000 0.000000 0.000000 0.000081 0.000000 0.000000 0.000000 0.000000
42 0.625975 0.000000 0.000000 0.000000 0.000000 0.000000 0.000000 0.000000 0.000000 0.000104 0.000000 0.000000 0.000000 0.000000
43 0.631812 0.000000 0.000000 0.000000 0.000000 0.000000 0.000000 0.000000 0.000000 0.000133 0.000000 0.000000 0.000000 0.000000
44 0.637648 0.000000 0.000000 0.000000 0.000000 0.000000 0.000000 0.000000 0.000000 0.000169 0.000000 0.000000 0.000000 0.000000
45 0.643485 0.000000 0.000000 0.000000 0.000000 0.000000 0.000000 0.000000 0.000000 0.000214 0.000000 0.000000 0.000000 0.000000
46 0.649321 0.000000 0.000000 0.000000 0.000000 0.000000 0.000000 0.000000 0.000000 0.000271 0.000000 0.000000 0.000000 0.000000
47 0.655157 0.000000 0.000000 0.000000 0.000000 0.000000 0.000000 0.000000 0.000000 0.000343 0.000000 0.000000 0.000000 0.000000
48 0.660993 0.000000 0.000000 0.000000 0.000000 0.000000 0.000000 0.000000 0.000000 0.000431 0.000000 0.000000 0.000000 0.000000
49 0.666830 0.000000 0.000000 0.000000 0.000000 0.000000 0.000000 0.000000 0.000000 0.000542 0.000000 0.000000 0.000000 0.000000
50 0.672666 0.000000 0.000000 0.000000 0.000000 0.000000 0.000000 0.000000 0.000000 0.000679 0.000000 0.000000 0.000000 0.000000
51 0.678502 0.000000 0.000000 0.000000 0.000000 0.000000 0.000000 0.000000 0.000000 0.000849 0.000000 0.000000 0.000000 0.000000
52 0.684337 0.000000 0.000000 0.000000 0.000000 0.000000 0.000000 0.000000 0.000000 0.001058 0.000000 0.000000 0.000000 0.000000
53 0.690172 0.000000 0.000000 0.000000 0.000000 0.000000 0.000000 0.000000 0.000000 0.001316 0.000000 0.000000 0.000000 0.000000
54 0.696008 0.000000 0.000000 0.000000 0.000000 0.000000 0.000000 0.000000 0.000000 0.001632 0.000000 0.000000 0.000000 0.000000
55 0.701843 0.000000 0.000000 0.000000 0.000000 0.000000 0.000000 0.000000 0.000000 0.002020 0.000000 0.000000 0.000000 0.000000
56 0.707677 0.000000 0.000000 0.000000 0.000000 0.000000 0.000000 0.000000 0.000000 0.002494 0.000000 0.000000 0.000000 0.000000
57 0.713513 0.000000 0.000000 0.000000 0.000000 0.000000 0.000000 0.000000 0.000000 0.003071 0.000000 0.000000 0.000000 0.000000
58 0.719344 0.000000 0.000000 0.000000 0.000000 0.000000 0.000000 0.000000 0.000000 0.003771 0.000000 0.000000 0.000000 0.000000
59 0.725172 0.000000 0.000000 0.000000 0.000000 0.000000 0.000000 0.000000 0.000000 0.004620 0.000000 0.000000 0.000000 0.000000
60 0.731006 0.000000 0.000000 0.000000 0.000000 0.000000 0.000000 0.000000 0.000000 0.005647 0.000000 0.000000 0.000000 0.000000
61 0.736833 0.000000 0.000000 0.000000 0.000000 0.000000 0.000000 0.000000 0.000000 0.006884 0.000000 0.000000 0.000000 0.000000
62 0.742654 0.000000 0.000000 0.000000 0.000000 0.000000 0.000000 0.000000 0.000000 0.008369 0.000000 0.000000 0.000000 0.000000
63 0.748482 0.000000 0.000000 0.000000 0.000000 0.000000 0.000000 0.000000 0.000000 0.010151 0.000000 0.000000 0.000000 0.000000
64 0.754291 0.000000 0.000000 0.000000 0.000000 0.000000 0.000000 0.000000 0.000000 0.012276 0.000000 0.000000 0.000000 0.000000
65 0.760085 0.000000 0.000000 0.000000 0.000000 0.000000 0.000000 0.000000 0.000000 0.014802 0.000000 0.000000 0.000000 0.000000
66 0.765893 0.000000 0.000000 0.000000 0.000000 0.000000 0.000000 0.000000 0.000000 0.017812 0.000000 0.000000 0.000000 0.000000
67 0.771673 0.000000 0.000000 0.000000 0.000000 0.000000 0.000000 0.000000 0.000000 0.021364 0.000000 0.000000 0.000000 0.000000
68 0.777420 0.000000 0.000000 0.000000 0.000000 0.000000 0.000000 0.000000 0.000000 0.025534 0.000000 0.000000 0.000000 0.000000
69 0.783182 0.000000 0.000000 0.000000 0.000000 0.000000 0.000000 0.000000 0.000000 0.030461 0.000000 0.000000 0.000000 0.000000
70 0.788886 0.000000 0.000000 0.000000 0.000000 0.000000 0.000000 0.000000 0.000000 0.036186 0.000000 0.000000 0.000000 0.000000
71 0.794515 0.000000 0.000000 0.000000 0.000000 0.000000 0.000000 0.000000 0.000000 0.042791 0.000000 0.000000 0.000000 0.000000
72 0.800159 0.000000 0.000000 0.000000 0.000000 0.000000 0.000000 0.000000 0.000000 0.050506 0.000000 0.000000 0.000000 0.000000
73 0.805728 0.000000 0.000000 0.000000 0.000000 0.000000 0.000000 0.000000 0.000000 0.059344 0.000000 0.000000 0.000000 0.000000
74 0.811168 0.000000 0.000000 0.000000 0.000000 0.000000 0.000000 0.000000 0.000000 0.069317 0.000000 0.000000 0.000000 0.000000
75 0.816582 0.000000 0.000000 0.000000 0.000000 0.000000 0.000000 0.000000 0.000000 0.080726 0.000000 0.000000 0.000000 0.000000
76 0.821905 0.000000 0.000000 0.000000 0.000000 0.000000 0.000000 0.000000 0.000000 0.093575 0.000000 0.000000 0.000000 0.000000
77 0.827047 0.000000 0.000000 0.000000 0.000000 0.000000 0.000000 0.000000 0.000000 0.107708 0.000000 0.000000 0.000000 0.000000
78 0.832086 0.000000 0.000000 0.000000 0.000000 0.000000 0.000000 0.000000 0.000000 0.123389 0.000000 0.000000 0.000000 0.000000
79 0.837040 0.000000 0.000000 0.000000 0.000000 0.000000 0.000000 0.000000 0.000000 0.140760 0.000000 0.000000 0.000000 0.000000
80 0.841834 0.000000 0.000000 0.000000 0.000000 0.000000 0.000000 0.000000 0.000000 0.159611 0.000000 0.000000 0.000000 0.000000
81 0.846468 0.000000 0.000000 0.000000 0.000000 0.000000 0.000000 0.000000 0.000000 0.179924 0.000000 0.000000 0.000000 0.000000
82 0.850985 0.000000 0.000000 0.000000 0.000000 0.000000 0.000000 0.000000 0.000000 0.201885 0.000000 0.000000 0.000000 0.000000
83 0.855386 0.000000 0.000000 0.000000 0.000000 0.000000 0.000000 0.000000 0.000000 0.225511 0.000000 0.000000 0.000000 0.000000
84 0.859650 0.000000 0.000000 0.000000 0.000000 0.000000 0.000000 0.000000 0.000000 0.250659 0.000000 0.000000 0.000000 0.000000
85 0.863777 0.000000 0.000000 0.000000 0.000000 0.000000 0.000000 0.000000 0.000000 0.277287 0.000000 0.000000 0.000000 0.000000
86 0.867787 0.000000 0.000000 0.000000 0.000000 0.000000 0.000000 0.000000 0.000000 0.305460 0.000000 0.000000 0.000000 0.000000
87 0.871690 0.000000 0.000000 0.000000 0.000000 0.000000 0.000000 0.000000 0.000000 0.335205 0.000000 0.000000 0.000000 0.000000
88 0.875484 0.000000 0.000000 0.000000 0.000000 0.000000 0.000000 0.000000 0.000000 0.366451 0.000000 0.000000 0.000000 0.000000
89 0.879167 0.000000 0.000000 0.000000 0.000000 0.000000 0.000000 0.000000 0.000000 0.399108 0.000000 0.000000 0.000000 0.000000
90 0.882742 0.000000 0.000000 0.000000 0.000000 0.000000 0.000000 0.000000 0.000000 0.433121 0.000000 0.000000 0.000000 0.000000
91 0.886216 0.000000 0.000000 0.000000 0.000000 0.000000 0.000000 0.000000 0.000000 0.468465 0.000000 0.000000 0.000000 0.000000
92 0.889594 0.000000 0.000000 0.000000 0.000000 0.000000 0.000000 0.000000 0.000000 0.505100 0.000000 0.000000 0.000000 0.000000
93 0.892879 0.000000 0.000000 0.000000 0.000000 0.000000 0.000000 0.000000 0.000000 0.542958 0.000000 0.000000 0.000000 0.000000
94 0.896072 0.000000 0.000000 0.000000 0.000000 0.000000 0.000000 0.000000 0.000000 0.581961 0.000000 0.000000 0.000000 0.000000
95 0.899175 0.000000 0.000000 0.000000 0.000000 0.000000 0.000000 0.000000 0.000000 0.622035 0.000000 0.000000 0.000000 0.000000
96 0.902193 0.000000 0.000000 0.000000 0.000000 0.000000 0.000000 0.000000 0.000000 0.663121 0.000000 0.000000 0.000000 0.000000
97 0.905130 0.000000 0.000000 0.000000 0.000000 0.000000 0.000000 0.000000 0.000000 0.705169 0.000000 0.000000 0.000000 0.000000
98 0.907988 0.000000 0.000000 0.000000 0.000000 0.000000 0.000000 0.000000 0.000000 0.748128 0.000000 0.000000 0.000000 0.000000
99 0.910772 0.000000 0.000000 0.000000 0.000000 0.000000 0.000000 0.000000 0.000000 0.791945 0.000000 0.000000 0.000000 0.000000
100 0.913484 0.000000 0.000000 0.000000 0.000000 0.000000 0.000000 0.000000 0.000000 0.836570 0.000000 0.000000 0.000000 0.000000
101 0.916128 0.000000 0.000000 0.000000 0.000000 0.000000 0.000000 0.000000 0.000000 0.881953 0.000000 0.000000 0.000000 0.000000
102 0.918706 0.000000 0.000000 0.000000 0.000000 0.000000 0.000000 0.000000 0.000000 0.928054 0.000000 0.000000 0.000000 0.000000
103 0.921222 0.000000 0.000000 0.000000 0.000000 0.000000 0.000000 0.000000 0.000000 0.974835 0.000000 0.000000 0.000000 0.000000
104 0.923679 0.000000 0.000000 0.000000 0.000000 0.000000 0.000000 0.000000 0.000000 1.022264 0.000000 0.000000 0.000000 0.000000
105 0.926080 0.000000 0.000000 0.000000 0.000000 0.000000 0.000000 0.000000 0.000000 1.070311 0.000000 0.000000 0.000000 0.000000
106 0.928426 0.000000 0.000000 0.000000 0.000000 0.000000 0.000000 0.000000 0.000000 1.118948 0.000000 0.000000 0.000000 0.000000
107 0.930721 0.000000 0.000000 0.000000 0.000000 0.000000 0.000000 0.000000 0.000000 1.168150 0.000000 0.000000 0.000000 0.000000
108 0.932968 0.000000 0.000000 0.000000 0.000000 0.000000 0.000000 0.000000 0.000000 1.217893 0.000000 0.000000 0.000000 0.000000
109 0.935168 0.000000 0.000000 0.000000 0.000000 0.000000 0.000000 0.000000 0.000000 1.268154 0.000000 0.000000 0.000000 0.000000
110 0.937323 0.000000 0.000000 0.000000 0.000000 0.000000 0.000000 0.000000 0.000000 1.318913 0.000000 0.000000 0.000000 0.000000
111 0.939436 0.000000 0.000000 0.000000 0.000000 0.000000 0.000000 0.000000 0.000000 1.370151 0.000000 0.000000 0.000000 0.000000
112 0.941508 0.000000 0.000000 0.000000 0.000000 0.000000 0.000000 0.000000 0.000000 1.421850 0.000000 0.000000 0.000000 0.000000
113 0.943540 0.000000 0.000000 0.000000 0.000000 0.000000 0.000000 0.000000 0.000000 1.473994 0.000000 0.000000 0.000000 0.000000
114 0.945536 0.000000 0.000000 0.000000 0.000000 0.000000 0.000000 0.000000 0.000000 1.526565 0.000000 0.000000 0.000000 0.000000
115 0.947496 0.000000 0.000000 0.000000 0.000000 0.000000 0.000000 0.000000 0.000000 1.579548 0.000000 0.000000 0.000000 0.000000
116 0.949421 0.000000 0.000000 0.000000 0.000000 0.000000 0.000000 0.000000 0.000000 1.632928 0.000000 0.000000 0.000000 0.000000
117 0.951314 0.000000 0.000000 0.000000 0.000000 0.000000 0.000000 0.000000 0.000000 1.686689 0.000000 0.000000 0.000000 0.000000
118 0.953174 0.000000 0.000000 0.000000 0.000000 0.000000 0.000000 0.000000 0.000000 1.740817 0.000000 0.000000 0.000000 0.000000
119 0.955004 0.000000 0.000000 0.000000 0.000000 0.000000 0.000000 0.000000 0.000000 1.795298 0.000000 0.000000 0.000000 0.000000
120 0.956805 0.000000 0.000000 0.000000 0.000000 0.000000 0.000000 0.000000 0.000000 1.850118 0.000000 0.000000 0.000000 0.000000
121 0.958576 0.000000 0.000000 0.000000 0.000000 0.000000 0.000000 0.000000 0.000000 1.905261 0.000000 0.000000 0.000000 0.000000
122 0.960321 0.000000 0.000000 0.000000 0.000000 0.000000 0.000000 0.000000 0.000000 1.960716 0.000000 0.000000 0.000000 0.000000
123 0.962039 0.000000 0.000000 0.000000 0.000000 0.000000 0.000000 0.000000 0.000000 2.016468 0.000000 0.000000 0.000000 0.000000
124 0.963731 0.000000 0.000000 0.000000 0.000000 0.000000 0.000000 0.000000 0.000000 2.072504 0.000000 0.000000 0.000000 0.000000
125 0.965399 0.000000 0.000000 0.000000 0.000000 0.000000 0.000000 0.000000 0.000000 2.128811 0.000000 0.000000 0.000000 0.000000
126 0.967042 0.000000 0.000000 0.000000 0.000000 0.000000 0.000000 0.000000 0.000000 2.185377 0.000000 0.000000 0.000000 0.000000
127 0.968662 0.000000 0.000000 0.000000 0.000000 0.000000 0.000000 0.000000 0.000000 2.242189 0.000000 0.000000 0.000000 0.000000
128 0.970260 0.000000 0.000000 0.000000 0.000000 0.000000 0.000000 0.000000 0.000000 2.299234 0.000000 0.000000 0.000000 0.000000
129 0.971836 0.000000 0.000000 0.000000 0.000000 0.000000 0.000000 0.000000 0.000000 2.356500 0.000000 0.000000 0.000000 0.000000
130 0.973390 0.000000 0.000000 0.000000 0.000000 0.000000 0.000000 0.000000 0.000000 2.413977 0.000000 0.000000 0.000000 0.000000
131 0.974924 0.000000 0.000000 0.000000 0.000000 0.000000 0.000000 0.000000 0.000000 2.471652 0.000000 0.000000 0.000000 0.000000
132 0.976438 0.000000 0.000000 0.000000 0.000000 0.000000 0.000000 0.000000 0.000000 2.529515 0.000000 0.000000 0.000000 0.000000
133 0.977933 0.000000 0.000000 0.000000 0.000000 0.000000 0.000000 0.000000 0.000000 2.587556 0.000000 0.000000 0.000000 0.000000
134 0.979408 0.000000 0.000000 0.000000 0.000000 0.000000 0.000000 0.000000 0.000000 2.645764 0.000000 0.000000 0.000000 0.000000
135 0.980866 0.000000 0.000000 0.000000 0.000000 0.000000 0.000000 0.000000 0.000000 2.704130 0.000000 0.000000 0.000000 0.000000
136 0.982305 0.000000 0.000000 0.000000 0.000000 0.000000 0.000000 0.000000 0.000000 2.762644 0.000000 0.000000 0.000000 0.000000
137 0.983728 0.000000 0.000000 0.000000 0.000000 0.000000 0.000000 0.000000 0.000000 2.821299 0.000000 0.000000 0.000000 0.000000
138 0.985133 0.000000 0.000000 0.000000 0.000000 0.000000 0.000000 0.000000 0.000000 2.880087 0.000000 0.000000 0.000000 0.000000
139 0.986522 0.000000 0.000000 0.000000 0.000000 0.000000 0.000000 0.000000 0.000000 2.938998 0.000000 0.000000 0.000000 0.000000
140 0.987895 0.000000 0.000000 0.000000 0.000000 0.000000 0.000000 0.000000 0.000000 2.998027 0.000000 0.000000 0.000000 0.000000
141 0.989253 0.000000 0.000000 0.000000 0.000000 0.000000 0.000000 0.000000 0.000000 3.057167 0.000000 0.000000 0.000000 0.000000
142 0.990595 0.000000 0.000000 0.000000 0.000000 0.000000 0.000000 0.000000 0.000000 3.116412 0.000000 0.000000 0.000000 0.000000
143 0.991923 0.000000 0.000000 0.000000 0.000000 0.000000 0.000000 0.000000 0.000000 -3.107430 0.000000 0.000000 0.000000 0.000000
144 0.993237 0.000000 0.000000 0.000000 0.000000 0.000000 0.000000 0.000000 0.000000 -3.047994 0.000000 0.000000 0.000000 0.000000
145 0.994536 0.000000 0.000000 0.000000 0.000000 0.000000 0.000000 0.000000 0.000000 -2.988469 0.000000 0.000000 0.000000 0.000000
146 0.995822 0.000000 0.000000 0.000000 0.000000 0.000000 0.000000 0.000000 0.000000 -2.928860 0.000000 0.000000 0.000000 0.000000
147 0.997095 0.000000 0.000000 0.000000 0.000000 0.000000 0.000000 0.000000 0.000000 -2.869172 0.000000 0.000000 0.000000 0.000000
148 0.998355 0.000000 0.000000 0.000000 0.000000 0.000000 0.000000 0.000000 0.000000 -2.809407 0.000000 0.000000 0.000000 0.000000
149 0.999602 0.000000 0.000000 0.000000 0.000000 0.000000 0.000000 0.000000 0.000000 -2.749571 0.000000 0.000000 0.000000 0.000000
150 1.000838 0.000000 0.000000 0.000000 0.000000 0.000000 0.000000 0.000000 0.000000 -2.689666 0.000000 0.000000 0.000000 0.000000
151 1.002061 0.000000 0.000000 0.000000 0.000000 0.000000 0.000000 0.000000 0.000000 -2.629694 0.000000 0.000000 0.000000 0.000000
152 1.003272 0.000000 0.000000 0.000000 0.000000 0.000000 0.000000 0.000000 0.000000 -2.569659 0.000000 0.000000 0.000000 0.000000
153 1.004473 0.000000 0.000000 0.000000 0.000000 0.000000 0.000000 0.000000 0.000000 -2.509563 0.000000 0.000000 0.000000 0.000000
