#Step_num time omega delta |10><10| |r0><r0| |d0><d0|
0 0.000000 0.000000 0.000000 0.000000 0.000000 0.000000 0.000000 0.000000 0.000000 0.000000 0.000000 0.000000 0.000000 0.000000
1 0.010000 0.000000 0.000000 0.000000 0.000000 0.000000 0.000000 0.000000 0.000000 0.000000 0.000000 0.000000 0.000000 0.000000
2 0.110000 0.000000 0.000000 0.000000 0.000000 0.000000 0.000000 0.000000 0.000000 0.000000 0.000000 0.000000 0.000000 0.000000
3 0.210000 0.000000 0.000000 0.000000 0.000000 0.000000 0.000000 0.000000 0.000000 0.000000 0.000000 0.000000 0.000000 0.000000
4 0.237511 0.000000 0.000000 0.000000 0.000000 0.000000 0.000000 0.000000 0.000000 0.000000 0.000000 0.000000 0.000000 0.000000
5 0.272317 0.000000 0.000000 0.000000 0.000000 0.000000 0.000000 0.000000 0.000000 0.000000 0.000000 0.000000 0.000000 0.000000
6 0.305928 0.000000 0.000000 0.000000 0.000000 0.000000 0.000000 0.000000 0.000000 0.000000 0.000000 0.000000 0.000000 0.000000
7 0.333153 0.000000 0.000000 0.000000 0.000000 0.000000 0.000000 0.000000 0.000000 0.000000 0.000000 0.000000 0.000000 0.000000
8 0.358090 0.000000 0.000000 0.000000 0.000000 0.000000 0.000000 0.000000 0.000000 0.000000 0.000000 0.000000 0.000000 0.000000
9 0.378080 0.000000 0.000000 0.000000 0.000000 0.000000 0.000000 0.000000 0.000000 0.000000 0.000000 0.000000 0.000000 0.000000
10 0.391695 0.000000 0.000000 0.000000 0.000000 0.000000 0.000000 0.000000 0.000000 0.000000 0.000000 0.000000 0.000000 0.000000
11 0.404440 0.000000 0.000000 0.000000 0.000000 0.000000 0.000000 0.000000 0.000000 0.000000 0.000000 0.000000 0.000000 0.000000
12 0.414059 0.000000 0.000000 0.000000 0.000000 0.000000 0.000000 0.000000 0.000000 0.000000 0.000000 0.000000 0.000000 0.000000
13 0.421450 0.000000 0.000000 0.000000 0.000000 0.000000 0.000000 0.000000 0.000000 0.000000 0.000000 0.000000 0.000000 0.000000
14 0.428498 0.000000 0.000000 0.000000 0.000000 0.000000 0.000000 0.000000 0.000000 0.000000 0.000000 0.000000 0.000000 0.000000
15 0.435855 0.000000 0.000000 0.000000 0.000000 0.000000 0.000000 0.000000 0.000000 0.000001 0.000000 0.000000 0.000000 0.000000
16 0.442500 0.000000 0.000000 0.000000 0.000000 0.000000 0.000000 0.000000 0.000000 0.000001 0.000000 0.000000 0.000000 0.000000
17 0.448535 0.000000 0.000000 0.000000 0.000000 0.000000 0.000000 0.000000 0.000000 0.000001 0.000000 0.000000 0.000000 0.000000
18 0.454405 0.000000 0.000000 0.000000 0.000000 0.000000 0.000000 0.000000 0.000000 0.000002 0.000000 0.000000 0.000000 0.000000
19 0.460261 0.000000 0.000000 0.000000 0.000000 0.000000 0.000000 0.000000 0.000000 0.000003 0.000000 0.000000 0.000000 0.000000
20 0.466111 0.000000 0.000000 0.000000 0.000000 0.000000 0.000000 0.000000 0.000000 0.000004 0.000000 0.000000 0.000000 0.000000
21 0.471958 0.000000 0.000000 0.000000 0.000000 0.000000 0.000000 0.000000 0.000000 0.000006 0.000000 0.000000 0.000000 0.000000
22 0.477802 0.000000 0.000000 0.000000 0.000000 0.000000 0.000000 0.000000 0.000000 0.000008 0.000000 0.000000 0.000000 0.000000
23 0.483644 0.000000 0.000000 0.000000 0.000000 0.000000 0.000000 0.000000 0.000000 0.000011 0.000000 0.000000 0.000000 0.000000
24 0.489485 0.000000 0.000000 0.000000 0.000000 0.000000 0.000000 0.000000 0.000000 0.000015 0.000000 0.000000 0.000000 0.000000
25 0.495325 0.000000 0.000000 0.000000 0.000000 0.000000 0.000000 0.000000 0.000000 0.000020 0.000000 0.000000 0.000000 0.000000
26 0.501164 0.000000 0.000000 0.000000 0.000000 0.000000 0.000000 0.000000 0.000000 0.000027 0.000000 0.000000 0.000000 0.000000
27 0.507001 0.000000 0.000000 0.000000 0.000000 0.000000 0.000000 0.000000 0.000000 0.000037 0.000000 0.000000 0.000000 0.000000
28 0.512839 0.000000 0.000000 0.000000 0.000000 0.000000 0.000000 0.000000 0.000000 0.000050 0.000000 0.000000 0.000000 0.000000
29 0.518675 0.000000 0.000000 0.000000 0.000000 0.000000 0.000000 0.000000 0.000000 0.000068 0.000000 0.000000 0.000000 0.000000
30 0.524512 0.000000 0.000000 0.000000 0.000000 0.000000 0.000000 0.000000 0.000000 0.000091 0.000000 0.000000 0.000000 0.000000
31 0.530347 0.000000 0.000000 0.000000 0.000000 0.000000 0.000000 0.000000 0.000000 0.000121 0.000000 0.000000 0.000000 0.000000
32 0.536183 0.000000 0.000000 0.000000 0.000000 0.000000 0.000000 0.000000 0.000000 0.000162 0.000000 0.000000 0.000000 0.000000
33 0.542018 0.000000 0.000000 0.000000 0.000000 0.000000 0.000000 0.000000 0.000000 0.000215 0.000000 0.000000 0.000000 0.000000
34 0.547852 0.000000 0.000000 0.000000 0.000000 0.000000 0.000000 0.000000 0.000000 0.000284 0.000000 0.000000 0.000000 0.000000
35 0.553686 0.000000 0.000000 0.000000 0.000000 0.000000 0.000000 0.000000 0.000000 0.000375 0.000000 0.000000 0.000000 0.000000
36 0.559520 0.000000 0.000000 0.000000 0.000000 0.000000 0.000000 0.000000 0.000000 0.000492 0.000000 0.000000 0.000000 0.000000
37 0.565354 0.000000 0.000000 0.000000 0.000000 0.000000 0.000000 0.000000 0.000000 0.000644 0.000000 0.000000 0.000000 0.000000
38 0.571187 0.000000 0.000000 0.000000 0.000000 0.000000 0.000000 0.000000 0.000000 0.000841 0.000000 0.000000 0.000000 0.000000
39 0.577020 0.000000 0.000000 0.000000 0.000000 0.000000 0.000000 0.000000 0.000000 0.001092 0.000000 0.000000 0.000000 0.000000
40 0.582852 0.000000 0.000000 0.000000 0.000000 0.000000 0.000000 0.000000 0.000000 0.001415 0.000000 0.000000 0.000000 0.000000
41 0.588681 0.000000 0.000000 0.000000 0.000000 0.000000 0.000000 0.000000 0.000000 0.001825 0.000000 0.000000 0.000000 0.000000
42 0.594512 0.000000 0.000000 0.000000 0.000000 0.000000 0.000000 0.000000 0.000000 0.002347 0.000000 0.000000 0.000000 0.000000
43 0.600341 0.000000 0.000000 0.000000 0.000000 0.000000 0.000000 0.000000 0.000000 0.003006 0.000000 0.000000 0.000000 0.000000
44 0.606165 0.000000 0.000000 0.000000 0.000000 0.000000 0.000000 0.000000 0.000000 0.003837 0.000000 0.000000 0.000000 0.000000
45 0.611992 0.000000 0.000000 0.000000 0.000000 0.000000 0.000000 0.000000 0.000000 0.004881 0.000000 0.000000 0.000000 0.000000
46 0.617812 0.000000 0.000000 0.000000 0.000000 0.000000 0.000000 0.000000 0.000000 0.006184 0.000000 0.000000 0.000000 0.000000
47 0.623609 0.000000 0.000000 0.000000 0.000000 0.000000 0.000000 0.000000 0.000000 0.007801 0.000000 0.000000 0.000000 0.000000
48 0.629410 0.000000 0.000000 0.000000 0.000000 0.000000 0.000000 0.000000 0.000000 0.009808 0.000000 0.000000 0.000000 0.000000
49 0.635199 0.000000 0.000000 0.000000 0.000000 0.000000 0.000000 0.000000 0.000000 0.012282 0.000000 0.000000 0.000000 0.000000
50 0.640937 0.000000 0.000000 0.000000 0.000000 0.000000 0.000000 0.000000 0.000000 0.015298 0.000000 0.000000 0.000000 0.000000
51 0.646676 0.000000 0.000000 0.000000 0.000000 0.000000 0.000000 0.000000 0.000000 0.018990 0.000000 0.000000 0.000000 0.000000
52 0.652375 0.000000 0.000000 0.000000 0.000000 0.000000 0.000000 0.000000 0.000000 0.023457 0.000000 0.000000 0.000000 0.000000
53 0.657953 0.000000 0.000000 0.000000 0.000000 0.000000 0.000000 0.000000 0.000000 0.028751 0.000000 0.000000 0.000000 0.000000
54 0.663489 0.000000 0.000000 0.000000 0.000000 0.000000 0.000000 0.000000 0.000000 0.035074 0.000000 0.000000 0.000000 0.000000
55 0.668958 0.000000 0.000000 0.000000 0.000000 0.000000 0.000000 0.000000 0.000000 0.042551 0.000000 0.000000 0.000000 0.000000
56 0.674243 0.000000 0.000000 0.000000 0.000000 0.000000 0.000000 0.000000 0.000000 0.051134 0.000000 0.000000 0.000000 0.000000
57 0.679404 0.000000 0.000000 0.000000 0.000000 0.000000 0.000000 0.000000 0.000000 0.061011 0.000000 0.000000 0.000000 0.000000
58 0.684459 0.000000 0.000000 0.000000 0.000000 0.000000 0.000000 0.000000 0.000000 0.072336 0.000000 0.000000 0.000000 0.000000
59 0.689317 0.000000 0.000000 0.000000 0.000000 0.000000 0.000000 0.000000 0.000000 0.084978 0.000000 0.000000 0.000000 0.000000
60 0.693976 0.000000 0.000000 0.000000 0.000000 0.000000 0.000000 0.000000 0.000000 0.098939 0.000000 0.000000 0.000000 0.000000
61 0.698489 0.000000 0.000000 0.000000 0.000000 0.000000 0.000000 0.000000 0.000000 0.114391 0.000000 0.000000 0.000000 0.000000
62 0.702860 0.000000 0.000000 0.000000 0.000000 0.000000 0.000000 0.000000 0.000000 0.131373 0.000000 0.000000 0.000000 0.000000
63 0.707069 0.000000 0.000000 0.000000 0.000000 0.000000 0.000000 0.000000 0.000000 0.149809 0.000000 0.000000 0.000000 0.000000
64 0.711122 0.000000 0.000000 0.000000 0.000000 0.000000 0.000000 0.000000 0.000000 0.169688 0.000000 0.000000 0.000000 0.000000
65 0.715042 0.000000 0.000000 0.000000 0.000000 0.000000 0.000000 0.000000 0.000000 0.191089 0.000000 0.000000 0.000000 0.000000
66 0.718844 0.000000 0.000000 0.000000 0.000000 0.000000 0.000000 0.000000 0.000000 0.214066 0.000000 0.000000 0.000000 0.000000
67 0.722532 0.000000 0.000000 0.000000 0.000000 0.000000 0.000000 0.000000 0.000000 0.238610 0.000000 0.000000 0.000000 0.000000
68 0.726106 0.000000 0.000000 0.000000 0.000000 0.000000 0.000000 0.000000 0.000000 0.264682 0.000000 0.000000 0.000000 0.000000
69 0.729573 0.000000 0.000000 0.000000 0.000000 0.000000 0.000000 0.000000 0.000000 0.292266 0.000000 0.000000 0.000000 0.000000
70 0.732939 0.000000 0.000000 0.000000 0.000000 0.000000 0.000000 0.000000 0.000000 0.321366 0.000000 0.000000 0.000000 0.000000
71 0.736213 0.000000 0.000000 0.000000 0.000000 0.000000 0.000000 0.000000 0.000000 0.351986 0.000000 0.000000 0.000000 0.000000
72 0.739399 0.000000 0.000000 0.000000 0.000000 0.000000 0.000000 0.000000 0.000000 0.384101 0.000000 0.000000 0.000000 0.000000
73 0.742500 0.000000 0.000000 0.000000 0.000000 0.000000 0.000000 0.000000 0.000000 0.417665 0.000000 0.000000 0.000000 0.000000
74 0.745517 0.000000 0.000000 0.000000 0.000000 0.000000 0.000000 0.000000 0.000000 0.452617 0.000000 0.000000 0.000000 0.000000
75 0.748452 0.000000 0.000000 0.000000 0.000000 0.000000 0.000000 0.000000 0.000000 0.488897 0.000000 0.000000 0.000000 0.000000
76 0.751310 0.000000 0.000000 0.000000 0.000000 0.000000 0.000000 0.000000 0.000000 0.526447 0.000000 0.000000 0.000000 0.000000
77 0.754091 0.000000 0.000000 0.000000 0.000000 0.000000 0.000000 0.000000 0.000000 0.565209 0.000000 0.000000 0.000000 0.000000
78 0.756800 0.000000 0.000000 0.000000 0.000000 0.000000 0.000000 0.000000 0.000000 0.605120 0.000000 0.000000 0.000000 0.000000
79 0.759438 0.000000 0.000000 0.000000 0.000000 0.000000 0.000000 0.000000 0.000000 0.646111 0.000000 0.000000 0.000000 0.000000
80 0.762007 0.000000 0.000000 0.000000 0.000000 0.000000 0.000000 0.000000 0.000000 0.688113 0.000000 0.000000 0.000000 0.000000
81 0.764511 0.000000 0.000000 0.000000 0.000000 0.000000 0.000000 0.000000 0.000000 0.731056 0.000000 0.000000 0.000000 0.000000
82 0.766950 0.000000 0.000000 0.000000 0.000000 0.000000 0.000000 0.000000 0.000000 0.774878 0.000000 0.000000 0.000000 0.000000
83 0.769328 0.000000 0.000000 0.000000 0.000000 0.000000 0.000000 0.000000 0.000000 0.819521 0.000000 0.000000 0.000000 0.000000
84 0.771647 0.000000 0.000000 0.000000 0.000000 0.000000 0.000000 0.000000 0.000000 0.864932 0.000000 0.000000 0.000000 0.000000
85 0.773910 0.000000 0.000000 0.000000 0.000000 0.000000 0.000000 0.000000 0.000000 0.911065 0.000000 0.000000 0.000000 0.000000
86 0.776119 0.000000 0.000000 0.000000 0.000000 0.000000 0.000000 0.000000 0.000000 0.957875 0.000000 0.000000 0.000000 0.000000
87 0.778277 0.000000 0.000000 0.000000 0.000000 0.000000 0.000000 0.000000 0.000000 1.005324 0.000000 0.000000 0.000000 0.000000
88 0.780386 0.000000 0.000000 0.000000 0.000000 0.000000 0.000000 0.000000 0.000000 1.053375 0.000000 0.000000 0.000000 0.000000
89 0.782448 0.000000 0.000000 0.000000 0.000000 0.000000 0.000000 0.000000 0.000000 1.101997 0.000000 0.000000 0.000000 0.000000
90 0.784465 0.000000 0.000000 0.000000 0.000000 0.000000 0.000000 0.000000 0.000000 1.151162 0.000000 0.000000 0.000000 0.000000
91 0.786440 0.000000 0.000000 0.000000 0.000000 0.000000 0.000000 0.000000 0.000000 1.200844 0.000000 0.000000 0.000000 0.000000
92 0.788374 0.000000 0.000000 0.000000 0.000000 0.000000 0.000000 0.000000 0.000000 1.251021 0.000000 0.000000 0.000000 0.000000
93 0.790269 0.000000 0.000000 0.000000 0.000000 0.000000 0.000000 0.000000 0.000000 1.301675 0.000000 0.000000 0.000000 0.000000
94 0.792127 0.000000 0.000000 0.000000 0.000000 0.000000 0.000000 0.000000 0.000000 1.352786 0.000000 0.000000 0.000000 0.000000
95 0.793949 0.000000 0.000000 0.000000 0.000000 0.000000 0.000000 0.000000 0.000000 1.404340 0.000000 0.000000 0.000000 0.000000
96 0.795738 0.000000 0.000000 0.000000 0.000000 0.000000 0.000000 0.000000 0.000000 1.456323 0.000000 0.000000 0.000000 0.000000
97 0.797494 0.000000 0.000000 0.000000 0.000000 0.000000 0.000000 0.000000 0.000000 1.508721 0.000000 0.000000 0.000000 0.000000
98 0.799219 0.000000 0.000000 0.000000 0.000000 0.000000 0.000000 0.000000 0.000000 1.561522 0.000000 0.000000 0.000000 0.000000
99 0.800915 0.000000 0.000000 0.000000 0.000000 0.000000 0.000000 0.000000 0.000000 1.614715 0.000000 0.000000 0.000000 0.000000
100 0.802582 0.000000 0.000000 0.000000 0.000000 0.000000 0.000000 0.000000 0.000000 1.668288 0.000000 0.000000 0.000000 0.000000
101 0.804221 0.000000 0.000000 0.000000 0.000000 0.000000 0.000000 0.000000 0.000000 1.722230 0.000000 0.000000 0.000000 0.000000
102 0.805835 0.000000 0.000000 0.000000 0.000000 0.000000 0.000000 0.000000 0.000000 1.776530 0.000000 0.000000 0.000000 0.000000
103 0.807422 0.000000 0.000000 0.000000 0.000000 0.000000 0.000000 0.000000 0.000000 1.831177 0.000000 0.000000 0.000000 0.000000
104 0.808986 0.000000 0.000000 0.000000 0.000000 0.000000 0.000000 0.000000 0.000000 1.886161 0.000000 0.000000 0.000000 0.000000
105 0.810525 0.000000 0.000000 0.000000 0.000000 0.000000 0.000000 0.000000 0.000000 1.941470 0.000000 0.000000 0.000000 0.000000
106 0.812042 0.000000 0.000000 0.000000 0.000000 0.000000 0.000000 0.000000 0.000000 1.997094 0.000000 0.000000 0.000000 0.000000
107 0.813537 0.000000 0.000000 0.000000 0.000000 0.000000 0.000000 0.000000 0.000000 2.053021 0.000000 0.000000 0.000000 0.000000
108 0.815011 0.000000 0.000000 0.000000 0.000000 0.000000 0.000000 0.000000 0.000000 2.109239 0.000000 0.000000 0.000000 0.000000
109 0.816464 0.000000 0.000000 0.000000 0.000000 0.000000 0.000000 0.000000 0.000000 2.165736 0.000000 0.000000 0.000000 0.000000
110 0.817897 0.000000 0.000000 0.000000 0.000000 0.000000 0.000000 0.000000 0.000000 2.222502 0.000000 0.000000 0.000000 0.000000
111 0.819311 0.000000 0.000000 0.000000 0.000000 0.000000 0.000000 0.000000 0.000000 2.279523 0.000000 0.000000 0.000000 0.000000
112 0.820706 0.000000 0.000000 0.000000 0.000000 0.000000 0.000000 0.000000 0.000000 2.336788 0.000000 0.000000 0.000000 0.000000
113 0.822083 0.000000 0.000000 0.000000 0.000000 0.000000 0.000000 0.000000 0.000000 2.394283 0.000000 0.000000 0.000000 0.000000
114 0.823443 0.000000 0.000000 0.000000 0.000000 0.000000 0.000000 0.000000 0.000000 2.451998 0.000000 0.000000 0.000000 0.000000
115 0.824785 0.000000 0.000000 0.000000 0.000000 0.000000 0.000000 0.000000 0.000000 2.509918 0.000000 0.000000 0.000000 0.000000
116 0.826111 0.000000 0.000000 0.000000 0.000000 0.000000 0.000000 0.000000 0.000000 2.568034 0.000000 0.000000 0.000000 0.000000
117 0.827420 0.000000 0.000000 0.000000 0.000000 0.000000 0.000000 0.000000 0.000000 2.626331 0.000000 0.000000 0.000000 0.000000
118 0.828714 0.000000 0.000000 0.000000 0.000000 0.000000 0.000000 0.000000 0.000000 2.684799 0.000000 0.000000 0.000000 0.000000
119 0.829993 0.000000 0.000000 0.000000 0.000000 0.000000 0.000000 0.000000 0.000000 2.743426 0.000000 0.000000 0.000000 0.000000
120 0.831257 0.000000 0.000000 0.000000 0.000000 0.000000 0.000000 0.000000 0.000000 2.802201 0.000000 0.000000 0.000000 0.000000
121 0.832506 0.000000 0.000000 0.000000 0.000000 0.000000 0.000000 0.000000 0.000000 2.861114 0.000000 0.000000 0.000000 0.000000
122 0.833741 0.000000 0.000000 0.000000 0.000000 0.000000 0.000000 0.000000 0.000000 2.920153 0.000000 0.000000 0.000000 0.000000
123 0.834963 0.000000 0.000000 0.000000 0.000000 0.000000 0.000000 0.000000 0.000000 2.979309 0.000000 0.000000 0.000000 0.000000
124 0.836172 0.000000 0.000000 0.000000 0.000000 0.000000 0.000000 0.000000 0.000000 3.038573 0.000000 0.000000 0.000000 0.000000
125 0.837367 0.000000 0.000000 0.000000 0.000000 0.000000 0.000000 0.000000 0.000000 3.097936 0.000000 0.000000 0.000000 0.000000
126 0.838550 0.000000 0.000000 0.000000 0.000000 0.000000 0.000000 0.000000 0.000000 -3.125795 0.000000 0.000000 0.000000 0.000000
127 0.839721 0.000000 0.000000 0.000000 0.000000 0.000000 0.000000 0.000000 0.000000 -3.066259 0.000000 0.000000 0.000000 0.000000
128 0.840879 0.000000 0.000000 0.000000 0.000000 0.000000 0.000000 0.000000 0.000000 -3.006645 0.000000 0.000000 0.000000 0.000000
129 0.842026 0.000000 0.000000 0.000000 0.000000 0.000000 0.000000 0.000000 0.000000 -2.946963 0.000000 0.000000 0.000000 0.000000
130 0.843162 0.000000 0.000000 0.000000 0.000000 0.000000 0.000000 0.000000 0.000000 -2.887216 0.000000 0.000000 0.000000 0.000000
131 0.844287 0.000000 0.000000 0.000000 0.000000 0.000000 0.000000 0.000000 0.000000 -2.827410 0.000000 0.000000 0.000000 0.000000
132 0.845401 0.000000 0.000000 0.000000 0.000000 0.000000 0.000000 0.000000 0.000000 -2.767550 0.000000 0.000000 0.000000 0.000000
133 0.846504 0.000000 0.000000 0.000000 0.000000 0.000000 0.000000 0.000000 0.000000 -2.707639 0.000000 0.000000 0.000000 0.000000
134 0.847597 0.000000 0.000000 0.000000 0.000000 0.000000 0.000000 0.000000 0.000000 -2.647682 0.000000 0.000000 0.000000 0.000000
135 0.848680 0.000000 0.000000 0.000000 0.000000 0.000000 0.000000 0.000000 0.000000 -2.587681 0.000000 0.000000 0.000000 0.000000
136 0.849754 0.000000 0.000000 0.000000 0.000000 0.000000 0.000000 0.000000 0.000000 -2.527638 0.000000 0.000000 0.000000 0.000000
137 0.850818 0.000000 0.000000 0.000000 0.000000 0.000000 0.000000 0.000000 0.000000 -2.467555 0.000000 0.000000 0.000000 0.000000
138 0.851873 0.000000 0.000000 0.000000 0.000000 0.000000 0.000000 0.000000 0.000000 -2.407434 0.000000 0.000000 0.000000 0.000000
139 0.852918 0.000000 0.000000 0.000000 0.000000 0.000000 0.000000 0.000000 0.000000 -2.347276 0.000000 0.000000 0.000000 0.000000
140 0.853955 0.000000 0.000000 0.000000 0.000000 0.000000 0.000000 0.000000 0.000000 -2.287082 0.000000 0.000000 0.000000 0.000000
141 0.854984 0.000000 0.000000 0.000000 0.000000 0.000000 0.000000 0.000000 0.000000 -2.226853 0.000000 0.000000 0.000000 0.000000
142 0.856004 0.000000 0.000000 0.000000 0.000000 0.000000 0.000000 0.000000 0.000000 -2.166587 0.000000 0.000000 0.000000 0.000000
143 0.857016 0.000000 0.000000 0.000000 0.000000 0.000000 0.000000 0.000000 0.000000 -2.106286 0.000000 0.000000 0.000000 0.000000
144 0.858020 0.000000 0.000000 0.000000 0.000000 0.000000 0.000000 0.000000 0.000000 -2.045949 0.000000 0.000000 0.000000 0.000000
145 0.859016 0.000000 0.000000 0.000000 0.000000 0.000000 0.000000 0.000000 0.000000 -1.985577 0.000000 0.000000 0.000000 0.000000
146 0.860004 0.000000 0.000000 0.000000 0.000000 0.000000 0.000000 0.000000 0.000000 -1.925167 0.000000 0.000000 0.000000 0.000000
147 0.860985 0.000000 0.000000 0.000000 0.000000 0.000000 0.000000 0.000000 0.000000 -1.864721 0.000000 0.000000 0.000000 0.000000
148 0.861959 0.000000 0.000000 0.000000 0.000000 0.000000 0.000000 0.000000 0.000000 -1.804237 0.000000 0.000000 0.000000 0.000000
149 0.862926 0.000000 0.000000 0.000000 0.000000 0.000000 0.000000 0.000000 0.000000 -1.743715 0.000000 0.000000 0.000000 0.000000
150 0.863886 0.000000 0.000000 0.000000 0.000000 0.000000 0.000000 0.000000 0.000000 -1.683154 0.000000 0.000000 0.000000 0.000000
151 0.864839 0.000000 0.000000 0.000000 0.000000 0.000000 0.000000 0.000000 0.000000 -1.622555 0.000000 0.000000 0.000000 0.000000
152 0.865785 0.000000 0.000000 0.000000 0.000000 0.000000 0.000000 0.000000 0.000000 -1.561916 0.000000 0.000000 0.000000 0.000000
153 0.866725 0.000000 0.000000 0.000000 0.000000 0.000000 0.000000 0.000000 0.000000 -1.501238 0.000000 0.000000 0.000000 0.000000
