#Step_num time omega delta |10><10| |r0><r0| |d0><d0|
0 0.000000 1.000000 0.000000 0.000000 0.000000 0.000000
1 0.002641 0.999999 0.000000 0.000000 0.000000 0.000000
2 0.005672 0.999984 0.000004 0.000004 0.000004 0.000004
3 0.008689 0.999897 0.000026 0.000026 0.000026 0.000026
4 0.009604 0.999840 0.000040 0.000040 0.000040 0.000040
5 0.010144 0.999796 0.000051 0.000051 0.000051 0.000051
6 0.010483 0.999764 0.000059 0.000059 0.000059 0.000059
7 0.010812 0.999729 0.000068 0.000068 0.000068 0.000068
8 0.011106 0.999694 0.000076 0.000076 0.000076 0.000076
9 0.011416 0.999654 0.000086 0.000086 0.000086 0.000086
10 0.011698 0.999614 0.000096 0.000096 0.000096 0.000096
11 0.011957 0.999575 0.000106 0.000106 0.000106 0.000106
12 0.012208 0.999533 0.000117 0.000117 0.000117 0.000117
13 0.012458 0.999489 0.000128 0.000128 0.000128 0.000128
14 0.012707 0.999441 0.000140 0.000140 0.000140 0.000140
15 0.012956 0.999390 0.000152 0.000152 0.000152 0.000152
16 0.013206 0.999336 0.000166 0.000166 0.000166 0.000166
17 0.013454 0.999277 0.000181 0.000181 0.000181 0.000181
18 0.013703 0.999215 0.000196 0.000196 0.000196 0.000196
19 0.013952 0.999149 0.000213 0.000213 0.000213 0.000213
20 0.014201 0.999078 0.000230 0.000230 0.000230 0.000230
21 0.014449 0.999003 0.000249 0.000249 0.000249 0.000249
22 0.014698 0.998923 0.000269 0.000269 0.000269 0.000269
23 0.014946 0.998839 0.000290 0.000290 0.000290 0.000290
24 0.015195 0.998749 0.000313 0.000313 0.000313 0.000313
25 0.015443 0.998654 0.000337 0.000337 0.000337 0.000337
26 0.015692 0.998553 0.000362 0.000362 0.000362 0.000362
27 0.015940 0.998447 0.000388 0.000388 0.000388 0.000388
28 0.016189 0.998334 0.000416 0.000416 0.000416 0.000416
29 0.016437 0.998216 0.000446 0.000446 0.000446 0.000446
30 0.016686 0.998091 0.000477 0.000477 0.000477 0.000477
31 0.016934 0.997959 0.000510 0.000510 0.000510 0.000510
32 0.017182 0.997820 0.000545 0.000545 0.000545 0.000545
33 0.017431 0.997675 0.000581 0.000581 0.000581 0.000581
34 0.017679 0.997521 0.000620 0.000620 0.000620 0.000620
35 0.017927 0.997360 0.000660 0.000660 0.000660 0.000660
36 0.018176 0.997191 0.000702 0.000702 0.000702 0.000702
37 0.018424 0.997014 0.000746 0.000746 0.000746 0.000746
38 0.018672 0.996829 0.000793 0.000793 0.000793 0.000793
39 0.018921 0.996634 0.000841 0.000841 0.000841 0.000841
40 0.019169 0.996431 0.000892 0.000892 0.000892 0.000892
41 0.019417 0.996219 0.000945 0.000945 0.000945 0.000945
42 0.019665 0.995997 0.001001 0.001001 0.001001 0.001001
43 0.019914 0.995765 0.001059 0.001059 0.001059 0.001059
44 0.020162 0.995523 0.001119 0.001119 0.001119 0.001119
45 0.020410 0.995270 0.001182 0.001182 0.001182 0.001182
46 0.020658 0.995008 0.001248 0.001248 0.001248 0.001248
47 0.020906 0.994734 0.001316 0.001316 0.001316 0.001316
48 0.021154 0.994449 0.001388 0.001388 0.001388 0.001388
49 0.021403 0.994152 0.001462 0.001462 0.001462 0.001462
50 0.021651 0.993844 0.001539 0.001539 0.001539 0.001539
51 0.021899 0.993524 0.001619 0.001619 0.001619 0.001619
52 0.022147 0.993191 0.001702 0.001702 0.001702 0.001702
53 0.022395 0.992846 0.001788 0.001788 0.001788 0.001788
54 0.022643 0.992488 0.001878 0.001878 0.001878 0.001878
55 0.022891 0.992116 0.001970 0.001970 0.001970 0.001970
56 0.023139 0.991732 0.002067 0.002067 0.002067 0.002067
57 0.023387 0.991333 0.002166 0.002166 0.002166 0.002166
58 0.023635 0.990921 0.002269 0.002269 0.002269 0.002269
59 0.023883 0.990494 0.002376 0.002376 0.002376 0.002376
60 0.024131 0.990053 0.002486 0.002486 0.002486 0.002486
61 0.024379 0.989597 0.002600 0.002600 0.002600 0.002600
62 0.024627 0.989126 0.002718 0.002718 0.002718 0.002718
63 0.024875 0.988639 0.002839 0.002839 0.002839 0.002839
64 0.025123 0.988137 0.002965 0.002965 0.002965 0.002965
65 0.025371 0.987619 0.003094 0.003094 0.003094 0.003094
66 0.025619 0.987085 0.003228 0.003228 0.003228 0.003228
67 0.025867 0.986534 0.003365 0.003365 0.003365 0.003365
68 0.026115 0.985967 0.003507 0.003507 0.003507 0.003507
69 0.026362 0.985383 0.003653 0.003653 0.003653 0.003653
70 0.026610 0.984782 0.003803 0.003803 0.003803 0.003803
71 0.026858 0.984164 0.003957 0.003957 0.003957 0.003957
72 0.027106 0.983528 0.004116 0.004116 0.004116 0.004116
73 0.027354 0.982874 0.004279 0.004279 0.004279 0.004279
74 0.027601 0.982203 0.004447 0.004447 0.004447 0.004447
75 0.027849 0.981513 0.004619 0.004619 0.004619 0.004619
76 0.028097 0.980804 0.004796 0.004796 0.004796 0.004796
77 0.028345 0.980078 0.004978 0.004978 0.004978 0.004978
78 0.028592 0.979332 0.005164 0.005164 0.005164 0.005164
79 0.028840 0.978568 0.005355 0.005355 0.005355 0.005355
80 0.029088 0.977784 0.005550 0.005550 0.005550 0.005550
81 0.029335 0.976982 0.005751 0.005751 0.005751 0.005751
82 0.029583 0.976160 0.005956 0.005956 0.005956 0.005956
83 0.029831 0.975318 0.006166 0.006166 0.006166 0.006166
84 0.030078 0.974457 0.006381 0.006381 0.006381 0.006381
85 0.030326 0.973576 0.006601 0.006601 0.006601 0.006601
86 0.030573 0.972675 0.006826 0.006826 0.006826 0.006826
87 0.030821 0.971754 0.007056 0.007056 0.007056 0.007056
88 0.031069 0.970813 0.007291 0.007291 0.007291 0.007291
89 0.031316 0.969852 0.007531 0.007531 0.007531 0.007531
90 0.031564 0.968871 0.007775 0.007775 0.007775 0.007775
91 0.031811 0.967870 0.008025 0.008025 0.008025 0.008025
92 0.032059 0.966849 0.008280 0.008280 0.008280 0.008280
93 0.032306 0.965807 0.008540 0.008540 0.008540 0.008540
94 0.032553 0.964745 0.008805 0.008805 0.008805 0.008805
95 0.032801 0.963663 0.009075 0.009075 0.009075 0.009075
96 0.033048 0.962560 0.009350 0.009350 0.009350 0.009350
97 0.033296 0.961438 0.009630 0.009630 0.009630 0.009630
98 0.033543 0.960295 0.009915 0.009915 0.009915 0.009915
99 0.033790 0.959132 0.010206 0.010206 0.010206 0.010206
100 0.034037 0.957950 0.010501 0.010501 0.010501 0.010501
101 0.034285 0.956747 0.010801 0.010801 0.010801 0.010801
102 0.034532 0.955525 0.011105 0.011105 0.011105 0.011105
103 0.034779 0.954283 0.011415 0.011415 0.011415 0.011415
104 0.035026 0.953021 0.011730 0.011730 0.011730 0.011730
105 0.035273 0.951741 0.012049 0.012049 0.012049 0.012049
106 0.035521 0.950441 0.012373 0.012373 0.012373 0.012373
107 0.035768 0.949122 0.012702 0.012702 0.012702 0.012702
108 0.036015 0.947785 0.013035 0.013035 0.013035 0.013035
109 0.036262 0.946429 0.013373 0.013373 0.013373 0.013373
110 0.036509 0.945054 0.013716 0.013716 0.013716 0.013716
111 0.036756 0.943662 0.014063 0.014063 0.014063 0.014063
112 0.037003 0.942253 0.014414 0.014414 0.014414 0.014414
113 0.037250 0.940826 0.014770 0.014770 0.014770 0.014770
114 0.037496 0.939381 0.015130 0.015130 0.015130 0.015130
115 0.037743 0.937921 0.015494 0.015494 0.015494 0.015494
116 0.037990 0.936444 0.015862 0.015862 0.015862 0.015862
117 0.038237 0.934951 0.016234 0.016234 0.016234 0.016234
118 0.038484 0.933442 0.016610 0.016610 0.016610 0.016610
119 0.038730 0.931918 0.016989 0.016989 0.016989 0.016989
120 0.038977 0.930380 0.017372 0.017372 0.017372 0.017372
121 0.039224 0.928827 0.017759 0.017759 0.017759 0.017759
122 0.039470 0.927261 0.018149 0.018149 0.018149 0.018149
123 0.039717 0.925681 0.018542 0.018542 0.018542 0.018542
124 0.039963 0.924089 0.018939 0.018939 0.018939 0.018939
125 0.040210 0.922484 0.019338 0.019338 0.019338 0.019338
126 0.040456 0.920867 0.019741 0.019741 0.019741 0.019741
127 0.040702 0.919240 0.020146 0.020146 0.020146 0.020146
128 0.040949 0.917602 0.020553 0.020553 0.020553 0.020553
129 0.041195 0.915953 0.020963 0.020963 0.020963 0.020963
130 0.041441 0.914296 0.021376 0.021376 0.021376 0.021376
131 0.041688 0.912629 0.021790 0.021790 0.021790 0.021790
132 0.041934 0.910955 0.022207 0.022207 0.022207 0.022207
133 0.042180 0.909273 0.022625 0.022625 0.022625 0.022625
134 0.042426 0.907584 0.023045 0.023045 0.023045 0.023045
135 0.042672 0.905889 0.023467 0.023467 0.023467 0.023467
136 0.042918 0.904188 0.023889 0.023889 0.023889 0.023889
137 0.043164 0.902483 0.024313 0.024313 0.024313 0.024313
138 0.043410 0.900773 0.024738 0.024738 0.024738 0.024738
139 0.043656 0.899060 0.025164 0.025164 0.025164 0.025164
140 0.043902 0.897345 0.025590 0.025590 0.025590 0.025590
141 0.044147 0.895628 0.026017 0.026017 0.026017 0.026017
142 0.044393 0.893909 0.026444 0.026444 0.026444 0.026444
143 0.044639 0.892191 0.026870 0.026870 0.026870 0.026870
144 0.044885 0.890472 0.027297 0.027297 0.027297 0.027297
145 0.045130 0.888755 0.027724 0.027724 0.027724 0.027724
146 0.045376 0.887040 0.028149 0.028149 0.028149 0.028149
147 0.045621 0.885327 0.028574 0.028574 0.028574 0.028574
148 0.045867 0.883618 0.028999 0.028999 0.028999 0.028999
149 0.046112 0.881913 0.029421 0.029421 0.029421 0.029421
150 0.046358 0.880214 0.029843 0.029843 0.029843 0.029843
151 0.046603 0.878520 0.030263 0.030263 0.030263 0.030263
152 0.046848 0.876833 0.030682 0.030682 0.030682 0.030682
153 0.047093 0.875153 0.031098 0.031098 0.031098 0.031098
154 0.047339 0.873481 0.031513 0.031513 0.031513 0.031513
155 0.047584 0.871819 0.031925 0.031925 0.031925 0.031925
156 0.047829 0.870166 0.032334 0.032334 0.032334 0.032334
157 0.048074 0.868523 0.032741 0.032741 0.032741 0.032741
158 0.048319 0.866892 0.033145 0.033145 0.033145 0.033145
159 0.048564 0.865272 0.033546 0.033546 0.033546 0.033546
160 0.048809 0.863666 0.033944 0.033944 0.033944 0.033944
161 0.049054 0.862072 0.034338 0.034338 0.034338 0.034338
162 0.049299 0.860493 0.034729 0.034729 0.034729 0.034729
163 0.049544 0.858929 0.035116 0.035116 0.035116 0.035116
164 0.049788 0.857380 0.035500 0.035500 0.035500 0.035500
165 0.050033 0.855847 0.035879 0.035879 0.035879 0.035879
166 0.050278 0.854330 0.036254 0.036254 0.036254 0.036254
167 0.050522 0.852831 0.036624 0.036624 0.036624 0.036624
168 0.050767 0.851350 0.036990 0.036990 0.036990 0.036990
169 0.051011 0.849887 0.037352 0.037352 0.037352 0.037352
170 0.051255 0.848443 0.037708 0.037708 0.037708 0.037708
171 0.051500 0.847019 0.038060 0.038060 0.038060 0.038060
172 0.051744 0.845614 0.038407 0.038407 0.038407 0.038407
173 0.051988 0.844230 0.038748 0.038748 0.038748 0.038748
174 0.052232 0.842866 0.039085 0.039085 0.039085 0.039085
175 0.052476 0.841523 0.039416 0.039416 0.039416 0.039416
176 0.052720 0.840202 0.039741 0.039741 0.039741 0.039741
177 0.052964 0.838903 0.040061 0.040061 0.040061 0.040061
178 0.053208 0.837625 0.040376 0.040376 0.040376 0.040376
179 0.053452 0.836370 0.040685 0.040685 0.040685 0.040685
180 0.053696 0.835137 0.040989 0.040989 0.040989 0.040989
181 0.053939 0.833926 0.041287 0.041287 0.041287 0.041287
182 0.054183 0.832738 0.041579 0.041579 0.041579 0.041579
183 0.054426 0.831573 0.041865 0.041865 0.041865 0.041865
184 0.054670 0.830430 0.042146 0.042146 0.042146 0.042146
185 0.054913 0.829310 0.042421 0.042421 0.042421 0.042421
186 0.055156 0.828213 0.042691 0.042691 0.042691 0.042691
187 0.055399 0.827138 0.042954 0.042954 0.042954 0.042954
188 0.055642 0.826085 0.043213 0.043213 0.043213 0.043213
189 0.055885 0.825055 0.043465 0.043465 0.043465 0.043465
190 0.056128 0.824046 0.043713 0.043713 0.043713 0.043713
191 0.056371 0.823059 0.043954 0.043954 0.043954 0.043954
192 0.056613 0.822093 0.044191 0.044191 0.044191 0.044191
193 0.056856 0.821148 0.044422 0.044422 0.044422 0.044422
194 0.057098 0.820223 0.044648 0.044648 0.044648 0.044648
195 0.057341 0.819318 0.044870 0.044870 0.044870 0.044870
196 0.057583 0.818433 0.045086 0.045086 0.045086 0.045086
197 0.057825 0.817566 0.045297 0.045297 0.045297 0.045297
198 0.058067 0.816718 0.045504 0.045504 0.045504 0.045504
199 0.058309 0.815887 0.045707 0.045707 0.045707 0.045707
200 0.058551 0.815073 0.045906 0.045906 0.045906 0.045906
201 0.058793 0.814275 0.046100 0.046100 0.046100 0.046100
202 0.059034 0.813493 0.046290 0.046290 0.046290 0.046290
203 0.059276 0.812726 0.046477 0.046477 0.046477 0.046477
204 0.059517 0.811972 0.046660 0.046660 0.046660 0.046660
205 0.059759 0.811231 0.046841 0.046841 0.046841 0.046841
206 0.060000 0.810502 0.047018 0.047018 0.047018 0.047018
207 0.060241 0.809784 0.047192 0.047192 0.047192 0.047192
208 0.060482 0.809076 0.047364 0.047364 0.047364 0.047364
209 0.060723 0.808378 0.047533 0.047533 0.047533 0.047533
210 0.060964 0.807688 0.047701 0.047701 0.047701 0.047701
211 0.061205 0.807004 0.047866 0.047866 0.047866 0.047866
212 0.061445 0.806327 0.048030 0.048030 0.048030 0.048030
213 0.061686 0.805655 0.048193 0.048193 0.048193 0.048193
214 0.061926 0.804987 0.048355 0.048355 0.048355 0.048355
215 0.062167 0.804322 0.048516 0.048516 0.048516 0.048516
216 0.062407 0.803658 0.048677 0.048677 0.048677 0.048677
217 0.062647 0.802995 0.048837 0.048837 0.048837 0.048837
218 0.062887 0.802332 0.048998 0.048998 0.048998 0.048998
219 0.063127 0.801667 0.049159 0.049159 0.049159 0.049159
220 0.063367 0.800999 0.049321 0.049321 0.049321 0.049321
221 0.063607 0.800327 0.049483 0.049483 0.049483 0.049483
222 0.063847 0.799651 0.049647 0.049647 0.049647 0.049647
223 0.064087 0.798968 0.049812 0.049812 0.049812 0.049812
224 0.064326 0.798278 0.049979 0.049979 0.049979 0.049979
225 0.064566 0.797580 0.050149 0.050149 0.050149 0.050149
226 0.064805 0.796873 0.050320 0.050320 0.050320 0.050320
227 0.065045 0.796155 0.050494 0.050494 0.050494 0.050494
228 0.065284 0.795426 0.050671 0.050671 0.050671 0.050671
229 0.065523 0.794685 0.050850 0.050850 0.050850 0.050850
230 0.065762 0.793930 0.051033 0.051033 0.051033 0.051033
231 0.066002 0.793161 0.051220 0.051220 0.051220 0.051220
232 0.066241 0.792377 0.051410 0.051410 0.051410 0.051410
233 0.066480 0.791577 0.051605 0.051605 0.051605 0.051605
234 0.066719 0.790761 0.051803 0.051803 0.051803 0.051803
235 0.066957 0.789926 0.052006 0.052006 0.052006 0.052006
236 0.067196 0.789074 0.052213 0.052213 0.052213 0.052213
237 0.067435 0.788202 0.052425 0.052425 0.052425 0.052425
238 0.067674 0.787311 0.052642 0.052642 0.052642 0.052642
239 0.067912 0.786399 0.052864 0.052864 0.052864 0.052864
240 0.068151 0.785467 0.053091 0.053091 0.053091 0.053091
241 0.068389 0.784514 0.053323 0.053323 0.053323 0.053323
242 0.068627 0.783539 0.053561 0.053561 0.053561 0.053561
243 0.068866 0.782542 0.053804 0.053804 0.053804 0.053804
244 0.069104 0.781523 0.054052 0.054052 0.054052 0.054052
245 0.069342 0.780481 0.054306 0.054306 0.054306 0.054306
246 0.069580 0.779416 0.054566 0.054566 0.054566 0.054566
247 0.069819 0.778329 0.054832 0.054832 0.054832 0.054832
248 0.070057 0.777219 0.055103 0.055103 0.055103 0.055103
249 0.070295 0.776087 0.055379 0.055379 0.055379 0.055379
250 0.070532 0.774931 0.055661 0.055661 0.055661 0.055661
251 0.070770 0.773753 0.055949 0.055949 0.055949 0.055949
252 0.071008 0.772553 0.056243 0.056243 0.056243 0.056243
253 0.071246 0.771331 0.056541 0.056541 0.056541 0.056541
254 0.071483 0.770088 0.056845 0.056845 0.056845 0.056845
255 0.071721 0.768823 0.057155 0.057155 0.057155 0.057155
256 0.071959 0.767538 0.057469 0.057469 0.057469 0.057469
257 0.072196 0.766232 0.057788 0.057788 0.057788 0.057788
258 0.072434 0.764908 0.058112 0.058112 0.058112 0.058112
259 0.072671 0.763564 0.058441 0.058441 0.058441 0.058441
260 0.072908 0.762203 0.058774 0.058774 0.058774 0.058774
261 0.073145 0.760825 0.059112 0.059112 0.059112 0.059112
262 0.073383 0.759430 0.059453 0.059453 0.059453 0.059453
263 0.073620 0.758021 0.059798 0.059798 0.059798 0.059798
264 0.073857 0.756597 0.060147 0.060147 0.060147 0.060147
265 0.074094 0.755160 0.060499 0.060499 0.060499 0.060499
266 0.074331 0.753711 0.060854 0.060854 0.060854 0.060854
267 0.074568 0.752251 0.061211 0.061211 0.061211 0.061211
268 0.074805 0.750782 0.061571 0.061571 0.061571 0.061571
269 0.075041 0.749304 0.061933 0.061933 0.061933 0.061933
270 0.075278 0.747820 0.062297 0.062297 0.062297 0.062297
271 0.075515 0.746329 0.062662 0.062662 0.062662 0.062662
272 0.075751 0.744835 0.063028 0.063028 0.063028 0.063028
273 0.075988 0.743337 0.063395 0.063395 0.063395 0.063395
274 0.076225 0.741838 0.063762 0.063762 0.063762 0.063762
275 0.076461 0.740339 0.064130 0.064130 0.064130 0.064130
276 0.076697 0.738841 0.064497 0.064497 0.064497 0.064497
277 0.076934 0.737346 0.064863 0.064863 0.064863 0.064863
278 0.077170 0.735856 0.065228 0.065228 0.065228 0.065228
279 0.077406 0.734371 0.065592 0.065592 0.065592 0.065592
280 0.077643 0.732894 0.065953 0.065953 0.065953 0.065953
281 0.077879 0.731426 0.066313 0.066313 0.066313 0.066313
282 0.078115 0.729969 0.066670 0.066670 0.066670 0.066670
283 0.078351 0.728523 0.067024 0.067024 0.067024 0.067024
284 0.078587 0.727091 0.067375 0.067375 0.067375 0.067375
285 0.078823 0.725673 0.067722 0.067722 0.067722 0.067722
286 0.079059 0.724273 0.068065 0.068065 0.068065 0.068065
287 0.079295 0.722889 0.068404 0.068404 0.068404 0.068404
288 0.079530 0.721525 0.068738 0.068738 0.068738 0.068738
289 0.079766 0.720182 0.069067 0.069067 0.069067 0.069067
290 0.080002 0.718860 0.069390 0.069390 0.069390 0.069390
291 0.080238 0.717562 0.069708 0.069708 0.069708 0.069708
292 0.080473 0.716287 0.070020 0.070020 0.070020 0.070020
293 0.080709 0.715038 0.070325 0.070325 0.070325 0.070325
294 0.080944 0.713816 0.070624 0.070624 0.070624 0.070624
295 0.081180 0.712622 0.070917 0.070917 0.070917 0.070917
296 0.081415 0.711456 0.071202 0.071202 0.071202 0.071202
297 0.081651 0.710320 0.071480 0.071480 0.071480 0.071480
298 0.081886 0.709214 0.071750 0.071750 0.071750 0.071750
299 0.082121 0.708140 0.072012 0.072012 0.072012 0.072012
300 0.082357 0.707097 0.072267 0.072267 0.072267 0.072267
301 0.082592 0.706088 0.072514 0.072514 0.072514 0.072514
302 0.082827 0.705111 0.072752 0.072752 0.072752 0.072752
303 0.083062 0.704168 0.072982 0.072982 0.072982 0.072982
304 0.083297 0.703260 0.073204 0.073204 0.073204 0.073204
305 0.083533 0.702386 0.073417 0.073417 0.073417 0.073417
306 0.083768 0.701546 0.073622 0.073622 0.073622 0.073622
307 0.084003 0.700742 0.073818 0.073818 0.073818 0.073818
308 0.084237 0.699973 0.074005 0.074005 0.074005 0.074005
309 0.084472 0.699238 0.074184 0.074184 0.074184 0.074184
310 0.084707 0.698538 0.074354 0.074354 0.074354 0.074354
311 0.084942 0.697873 0.074516 0.074516 0.074516 0.074516
312 0.085177 0.697243 0.074669 0.074669 0.074669 0.074669
313 0.085412 0.696646 0.074814 0.074814 0.074814 0.074814
314 0.085646 0.696083 0.074951 0.074951 0.074951 0.074951
315 0.085881 0.695553 0.075079 0.075079 0.075079 0.075079
316 0.086116 0.695055 0.075200 0.075200 0.075200 0.075200
317 0.086350 0.694589 0.075312 0.075312 0.075312 0.075312
318 0.086585 0.694154 0.075417 0.075417 0.075417 0.075417
319 0.086819 0.693749 0.075515 0.075515 0.075515 0.075515
320 0.087054 0.693373 0.075606 0.075606 0.075606 0.075606
321 0.087288 0.693025 0.075690 0.075690 0.075690 0.075690
322 0.087522 0.692703 0.075767 0.075767 0.075767 0.075767
323 0.087757 0.692408 0.075838 0.075838 0.075838 0.075838
324 0.087991 0.692137 0.075903 0.075903 0.075903 0.075903
325 0.088225 0.691888 0.075962 0.075962 0.075962 0.075962
326 0.088459 0.691662 0.076016 0.076016 0.076016 0.076016
327 0.088694 0.691456 0.076065 0.076065 0.076065 0.076065
328 0.088928 0.691268 0.076109 0.076109 0.076109 0.076109
329 0.089162 0.691098 0.076149 0.076149 0.076149 0.076149
330 0.089396 0.690943 0.076185 0.076185 0.076185 0.076185
331 0.089630 0.690803 0.076218 0.076218 0.076218 0.076218
332 0.089864 0.690674 0.076248 0.076248 0.076248 0.076248
333 0.090098 0.690557 0.076275 0.076275 0.076275 0.076275
334 0.090332 0.690448 0.076300 0.076300 0.076300 0.076300
335 0.090565 0.690346 0.076324 0.076324 0.076324 0.076324
336 0.090799 0.690249 0.076346 0.076346 0.076346 0.076346
337 0.091033 0.690156 0.076367 0.076367 0.076367 0.076367
338 0.091267 0.690065 0.076388 0.076388 0.076388 0.076388
339 0.091500 0.689973 0.076409 0.076409 0.076409 0.076409
340 0.091734 0.689879 0.076431 0.076431 0.076431 0.076431
341 0.091967 0.689782 0.076453 0.076453 0.076453 0.076453
342 0.092201 0.689679 0.076477 0.076477 0.076477 0.076477
343 0.092435 0.689568 0.076503 0.076503 0.076503 0.076503
344 0.092668 0.689448 0.076531 0.076531 0.076531 0.076531
